model_ppg1.acq
0.5 msec/sample
3 channels
RSP, X, RSPEC-R
Volts
PPG, X, PPGED-R
Volts
ECG, Y, RSPEC-R
mV
CH1	CH2	CH13	
244433	244433	244433	
4.00208	-0.157776	0.000305176	
4.00299	-0.158386	0.000305176	
4.00238	-0.158386	0.000305176	
4.00208	-0.158081	0.000152588	
4.00208	-0.158386	0.000610352	
4.00269	-0.158081	0.000152588	
4.00269	-0.158691	0.000915527	
4.00177	-0.160828	0.000457764	
4.00238	-0.163269	0.000457764	
4.00208	-0.162964	0.000305176	
4.00269	-0.163269	0.000305176	
4.00177	-0.162964	0.000305176	
4.00177	-0.162354	0.000305176	
4.00208	-0.162964	0.000762939	
4.00208	-0.163269	0.000152588	
4.00177	-0.163879	0.000457764	
4.00208	-0.162964	0.000762939	
4.00269	-0.163269	0.000457764	
4.00177	-0.16571	0.00106812	
4.00116	-0.167542	0.000457764	
4.00146	-0.168152	0.000610352	
4.00177	-0.168152	0.000457764	
4.00269	-0.167847	0.000305176	
4.00208	-0.167236	0.000305176	
4.00238	-0.168762	0.000457764	
4.00208	-0.167542	0.000152588	
4.00146	-0.168152	0.000610352	
4.00208	-0.167542	0.000305176	
4.00269	-0.168457	0.000152588	
4.00238	-0.168152	0.000762939	
4.00238	-0.170898	0.000305176	
4.00208	-0.172729	0.000762939	
4.00269	-0.17334	0.000610352	
4.00177	-0.17334	0.000152588	
4.00208	-0.17334	0.000457764	
4.00177	-0.173035	0.000305176	
4.00299	-0.172729	0.000610352	
4.00269	-0.172729	0.000305176	
4.00208	-0.172729	0	
4.00238	-0.173645	0.000152588	
4.00238	-0.173035	0	
4.00208	-0.17334	0.000305176	
4.00208	-0.173035	0.000305176	
4.00299	-0.175171	0.000305176	
4.00543	-0.177612	0.000610352	
4.00696	-0.177612	0.000305176	
4.00757	-0.177917	0.000762939	
4.00757	-0.177612	0.000305176	
4.00726	-0.178223	0.000457764	
4.00696	-0.177612	0.000305176	
4.00726	-0.178528	0.000152588	
4.00757	-0.177917	0.000152588	
4.00726	-0.177917	0.000610352	
4.00665	-0.178528	0.000152588	
4.00757	-0.177917	0.000457764	
4.00696	-0.177307	0.000152588	
4.00696	-0.178223	0.000152588	
4.00696	-0.180359	0.000457764	
4.00726	-0.1828	0.000762939	
4.00696	-0.1828	0.000610352	
4.00665	-0.1828	0.000305176	
4.00696	-0.1828	0.000610352	
4.00726	-0.1828	0.000457764	
4.00726	-0.183105	0.000610352	
4.00696	-0.183105	0.000457764	
4.00696	-0.1828	0.000305176	
4.00726	-0.183105	0.000762939	
4.00696	-0.182495	0.000305176	
4.00726	-0.183105	0.000305176	
4.00757	-0.183105	0.000305176	
4.00787	-0.183411	0.000457764	
4.00757	-0.182495	0.000610352	
4.00757	-0.183105	0.000305176	
4.00665	-0.185242	0.000305176	
4.00665	-0.187073	0.000457764	
4.00665	-0.187378	0	
4.00757	-0.187683	0.00106812	
4.00726	-0.187988	0.000152588	
4.00696	-0.187683	0	
4.00757	-0.187683	0.000152588	
4.00757	-0.187683	0.000457764	
4.00726	-0.187683	0.000457764	
4.00726	-0.187988	0.000305176	
4.00726	-0.187073	0.000152588	
4.00726	-0.188293	0.000457764	
4.00696	-0.187378	0.000457764	
4.00757	-0.186768	0.000457764	
4.00757	-0.187683	0.000457764	
4.00757	-0.187988	0.000305176	
4.00635	-0.187683	0.000610352	
4.00726	-0.187988	0.000305176	
4.00726	-0.189819	0.000305176	
4.00696	-0.191956	0.000305176	
4.00726	-0.193176	0.000457764	
4.00726	-0.192871	0.000457764	
4.00665	-0.192871	-0.000152588	
4.00726	-0.192566	0.000610352	
4.00665	-0.192871	0.000610352	
4.00787	-0.192871	0.000610352	
4.00696	-0.191956	0.000610352	
4.00665	-0.191956	0.000610352	
4.00757	-0.192566	0.000305176	
4.00757	-0.192566	0.000305176	
4.00726	-0.192566	0.000610352	
4.00696	-0.192871	0.000152588	
4.00635	-0.192261	0	
4.00757	-0.192566	0.000762939	
4.00696	-0.191956	0.000305176	
4.00726	-0.192566	0.000457764	
4.00665	-0.192261	0.000762939	
4.00696	-0.191956	0.000762939	
4.00696	-0.192261	0.000610352	
4.00757	-0.192261	0.000457764	
4.00726	-0.195007	0.000305176	
4.00726	-0.197144	0.000305176	
4.00726	-0.198059	0.000305176	
4.00726	-0.197144	0.000762939	
4.00726	-0.197754	0.000305176	
4.00726	-0.198059	0.000152588	
4.01093	-0.197449	0.000152588	
4.01093	-0.197449	0.000610352	
4.01215	-0.197754	0.000610352	
4.01154	-0.197754	0.000152588	
4.01154	-0.197449	0.000152588	
4.01245	-0.197449	0.000457764	
4.01184	-0.197754	0.000457764	
4.01245	-0.198059	0.000762939	
4.01245	-0.197144	0.000762939	
4.01184	-0.197754	0.000762939	
4.01215	-0.197449	0.000457764	
4.01215	-0.197449	0.000457764	
4.01215	-0.197754	0	
4.01215	-0.197754	0.000152588	
4.01215	-0.197144	0.000305176	
4.01215	-0.197144	0.000457764	
4.01215	-0.197754	0.000152588	
4.01245	-0.197754	0.000610352	
4.01245	-0.197449	0.000915527	
4.01245	-0.198364	0.000762939	
4.01184	-0.197144	0.000305176	
4.01184	-0.19989	0	
4.01184	-0.202332	0.000762939	
4.01184	-0.203552	0.000610352	
4.01184	-0.202332	0.000457764	
4.01245	-0.201416	0.000305176	
4.01245	-0.202637	0.000152588	
4.01245	-0.202332	0.000152588	
4.01245	-0.201721	0.000152588	
4.01215	-0.202332	0.000152588	
4.01184	-0.202637	0.000457764	
4.01245	-0.202026	0.000457764	
4.01215	-0.201111	0.000457764	
4.01245	-0.202637	0.000457764	
4.01245	-0.202637	0.000457764	
4.01184	-0.202942	0.000457764	
4.01215	-0.202332	0.000305176	
4.01154	-0.202637	0.00106812	
4.01245	-0.202942	0.000305176	
4.01245	-0.202026	0.000152588	
4.01154	-0.203247	0.000152588	
4.01215	-0.202637	0.000305176	
4.01215	-0.202332	0	
4.01215	-0.202637	0.000305176	
4.01245	-0.202637	0.000610352	
4.01215	-0.202026	0.000305176	
4.01215	-0.202637	0.000305176	
4.01154	-0.202026	0.000762939	
4.01215	-0.202637	0.000457764	
4.01245	-0.202026	0.000305176	
4.01245	-0.202026	0.000457764	
4.01215	-0.202026	0.000305176	
4.01184	-0.202332	0.000152588	
4.01154	-0.202332	0.000305176	
4.01245	-0.202637	0.000610352	
4.01215	-0.202332	0.000457764	
4.01154	-0.202942	0.000305176	
4.01245	-0.202332	0.000457764	
4.01245	-0.204773	0.000610352	
4.01215	-0.206909	0.000457764	
4.01184	-0.207214	0.000305176	
4.01215	-0.20752	0.000457764	
4.01245	-0.20752	0.000610352	
4.01215	-0.206604	0.000457764	
4.01215	-0.207214	0.000457764	
4.01245	-0.20752	0.000305176	
4.01123	-0.20752	0.000152588	
4.01245	-0.206909	0.000610352	
4.01215	-0.207214	0.000762939	
4.01154	-0.20752	0.000305176	
4.01276	-0.207214	0.000305176	
4.01215	-0.207825	0.000762939	
4.01215	-0.207214	0.000457764	
4.01215	-0.206909	0.000610352	
4.01215	-0.207825	0.000457764	
4.01245	-0.208435	0.000457764	
4.0155	-0.207214	0.000152588	
4.01672	-0.206909	0.00106812	
4.01733	-0.206604	0.000305176	
4.01703	-0.207825	0.000152588	
4.01672	-0.20752	0.000152588	
4.01672	-0.207214	0.000305176	
4.01672	-0.20752	0.000152588	
4.01672	-0.207825	0.000457764	
4.01703	-0.206604	0.000610352	
4.01703	-0.206909	0.000610352	
4.01703	-0.206909	0.000305176	
4.01733	-0.20752	0.000610352	
4.01733	-0.207825	0.000457764	
4.01703	-0.207214	0.000457764	
4.01642	-0.207214	0.000457764	
4.01672	-0.207825	0.000457764	
4.01703	-0.207214	0.000152588	
4.01733	-0.20752	0.000457764	
4.01733	-0.207214	0.000457764	
4.01733	-0.20752	0.000457764	
4.01703	-0.207214	0	
4.01703	-0.207214	0.000457764	
4.01703	-0.207825	0.000610352	
4.01733	-0.207825	0.000457764	
4.01703	-0.206909	0.000610352	
4.01703	-0.206909	0.000610352	
4.01703	-0.20752	0.000152588	
4.01703	-0.20752	0.000610352	
4.01672	-0.20752	0.000457764	
4.01672	-0.206604	0.000152588	
4.01642	-0.206909	0.000305176	
4.01672	-0.20752	0.000457764	
4.01733	-0.207214	0.000457764	
4.01642	-0.20752	0.000457764	
4.01733	-0.207825	0.000305176	
4.01642	-0.207214	0.000762939	
4.01733	-0.20752	0.000762939	
4.01703	-0.20752	0.000762939	
4.01733	-0.207214	0.000152588	
4.01733	-0.20813	0.000457764	
4.01703	-0.20752	0.000152588	
4.01733	-0.20752	0.000762939	
4.01733	-0.20752	0	
4.01703	-0.207214	0	
4.01703	-0.20752	0	
4.01672	-0.207825	0.000152588	
4.01733	-0.20752	0.000457764	
4.01733	-0.20752	0.000457764	
4.01764	-0.20752	0.000610352	
4.01733	-0.207214	0.000457764	
4.01703	-0.20752	0.000305176	
4.01733	-0.207214	0.000915527	
4.01733	-0.207825	0.000305176	
4.01672	-0.206604	0.000610352	
4.01703	-0.20752	0.000610352	
4.01642	-0.20752	0.000610352	
4.01733	-0.20752	0.000305176	
4.01764	-0.206909	0.000152588	
4.01642	-0.206909	0.000457764	
4.01703	-0.20752	0.000152588	
4.01733	-0.20752	-0.000152588	
4.01764	-0.20752	0.000610352	
4.01764	-0.20752	0.000457764	
4.01703	-0.207214	0.00106812	
4.01733	-0.207214	0.000610352	
4.01703	-0.20752	0.000610352	
4.01672	-0.20752	0.000457764	
4.01733	-0.207214	0.000457764	
4.01672	-0.207825	0.000305176	
4.01672	-0.207825	0.000152588	
4.01703	-0.206909	0.000152588	
4.01672	-0.207214	0.000457764	
4.01733	-0.20813	0.000305176	
4.01733	-0.206909	0.000305176	
4.01703	-0.207214	0.000610352	
4.01642	-0.20752	0.000457764	
4.01642	-0.207825	0.000762939	
4.01703	-0.207825	0.000457764	
4.01733	-0.206909	0.000305176	
4.01642	-0.20752	0.000457764	
4.01703	-0.206604	0.000305176	
4.01672	-0.20752	0.000762939	
4.01733	-0.208435	0.000457764	
4.01703	-0.207214	0.000305176	
4.01733	-0.20752	0	
4.01672	-0.20752	0.000305176	
4.01703	-0.207214	0.000305176	
4.01733	-0.207214	0.000305176	
4.02069	-0.20752	0.000610352	
4.0213	-0.207214	0.000457764	
4.02191	-0.20813	0	
4.02191	-0.207214	0.000915527	
4.02191	-0.207214	0.000305176	
4.0213	-0.20752	0.000457764	
4.02252	-0.206909	0.000457764	
4.02191	-0.20752	0.000762939	
4.02222	-0.206909	0	
4.0213	-0.20752	0	
4.02161	-0.20813	0.000305176	
4.02191	-0.207214	0.000457764	
4.02191	-0.20752	0	
4.02191	-0.207214	0.000610352	
4.02191	-0.207214	0.000610352	
4.02191	-0.207214	0.000762939	
4.02252	-0.207214	0.000610352	
4.02222	-0.20752	0.000457764	
4.02161	-0.206909	0.000610352	
4.02161	-0.207214	0.000152588	
4.02191	-0.206909	0.000610352	
4.02161	-0.207825	0.000152588	
4.02161	-0.20813	0	
4.02222	-0.20752	0.000762939	
4.02191	-0.207825	0.000305176	
4.02252	-0.20752	0.000152588	
4.02191	-0.20752	0.000610352	
4.02191	-0.207214	0.000152588	
4.02252	-0.20752	0.000915527	
4.02222	-0.207214	0.000457764	
4.02222	-0.206909	0.000610352	
4.02283	-0.207214	0.000305176	
4.02252	-0.207214	0.000152588	
4.02191	-0.206909	0.000762939	
4.02222	-0.207214	0.000457764	
4.02191	-0.207214	0	
4.02252	-0.20752	0.000305176	
4.02161	-0.207825	0.000152588	
4.02191	-0.206909	0.000152588	
4.02222	-0.20752	0.000152588	
4.02222	-0.20752	0.000762939	
4.02161	-0.207825	0.000457764	
4.02191	-0.20752	0.000762939	
4.02161	-0.207214	0.000610352	
4.02191	-0.207214	0.000762939	
4.02222	-0.20752	0.000305176	
4.02222	-0.207214	0.000457764	
4.02161	-0.207214	0.000305176	
4.02161	-0.206909	0.000305176	
4.02252	-0.207214	0.000305176	
4.02222	-0.207825	0.000610352	
4.02222	-0.20752	0.000305176	
4.02191	-0.20752	0.000152588	
4.02252	-0.206909	0.000610352	
4.02252	-0.207214	0.000610352	
4.02222	-0.20752	0.000610352	
4.02161	-0.207214	0.000457764	
4.02222	-0.207214	0.000457764	
4.02222	-0.20752	0.000457764	
4.02161	-0.20752	0.000305176	
4.02222	-0.20752	0.000610352	
4.02222	-0.20752	0.000305176	
4.02191	-0.20752	0	
4.02191	-0.206909	0.000762939	
4.02222	-0.20752	0.000305176	
4.02191	-0.206909	0.000610352	
4.02161	-0.20752	0.000457764	
4.02191	-0.207214	0.000457764	
4.02191	-0.20752	0.000915527	
4.02191	-0.20752	0.000305176	
4.02222	-0.20752	0.000152588	
4.02252	-0.20752	0.000457764	
4.02191	-0.206909	0.000305176	
4.0213	-0.207214	0.00106812	
4.02222	-0.207825	0.000305176	
4.02252	-0.20752	0.000305176	
4.02191	-0.207214	0.000305176	
4.02161	-0.20752	0.000305176	
4.02252	-0.207825	0.000152588	
4.02161	-0.20752	0.000457764	
4.02222	-0.206909	0.000305176	
4.02222	-0.207825	0.000457764	
4.02191	-0.20752	0.000457764	
4.02161	-0.20752	0.000762939	
4.02222	-0.20752	0.000305176	
4.02222	-0.207214	0.000305176	
4.0213	-0.20752	0.000305176	
4.02191	-0.20752	0.000152588	
4.02222	-0.207214	0.000305176	
4.02191	-0.207825	0	
4.02191	-0.207214	0	
4.02252	-0.20752	0.000152588	
4.02191	-0.20752	0.000152588	
4.02191	-0.206909	0.000457764	
4.02344	-0.207825	0.000610352	
4.02283	-0.20752	0.000762939	
4.02283	-0.20752	0.000762939	
4.02527	-0.207214	0.000457764	
4.02649	-0.206909	0.000457764	
4.0274	-0.20752	0.000610352	
4.02679	-0.207825	0.000305176	
4.02679	-0.20752	0.000457764	
4.02618	-0.20752	0.000152588	
4.0274	-0.206909	0.000610352	
4.0271	-0.20752	0.000305176	
4.02679	-0.20752	0.000457764	
4.0271	-0.20752	0.000610352	
4.0271	-0.20752	0.000457764	
4.0271	-0.207214	0.000610352	
4.0271	-0.206909	0.000305176	
4.0271	-0.207214	0.000610352	
4.02679	-0.207214	0.000457764	
4.0271	-0.20752	0.000152588	
4.02649	-0.207214	0.00106812	
4.02679	-0.204773	0.000762939	
4.0271	-0.202637	0.000152588	
4.02649	-0.202637	0.000152588	
4.0271	-0.202637	0.000152588	
4.02771	-0.202637	0.000152588	
4.02679	-0.202332	0.000152588	
4.0271	-0.202942	0.000305176	
4.0271	-0.202637	0.000457764	
4.02679	-0.202332	0.000305176	
4.02649	-0.202637	0.000457764	
4.02771	-0.202637	0.000457764	
4.0274	-0.202332	0.000305176	
4.0274	-0.203247	0.000305176	
4.0274	-0.202637	0.000305176	
4.02679	-0.202637	0.000305176	
4.02679	-0.202637	0.000152588	
4.0271	-0.203552	0.000457764	
4.0271	-0.203247	0.000305176	
4.0274	-0.202942	0.000305176	
4.02649	-0.202637	0.000305176	
4.02679	-0.202332	0.000762939	
4.02679	-0.202026	0.000610352	
4.0271	-0.202637	0.000457764	
4.02679	-0.202332	0.000457764	
4.02649	-0.202332	0.000762939	
4.02679	-0.202942	0.000610352	
4.0271	-0.202332	0.000610352	
4.0271	-0.202332	0.000305176	
4.02679	-0.202637	0	
4.02679	-0.202637	0.000457764	
4.02649	-0.202637	0.000610352	
4.0271	-0.202637	0.000305176	
4.02679	-0.202637	0.000457764	
4.0271	-0.202637	0.000610352	
4.0271	-0.200195	0.000762939	
4.02679	-0.198364	0.000610352	
4.02649	-0.197449	0.000305176	
4.0274	-0.197754	0	
4.02618	-0.197449	0.000152588	
4.0271	-0.197754	0.000762939	
4.02649	-0.197449	0.000152588	
4.02679	-0.197754	0.000305176	
4.0271	-0.197449	0	
4.0271	-0.197144	0.000305176	
4.02679	-0.197144	0.000152588	
4.02649	-0.197449	0.000152588	
4.02649	-0.197754	0.000305176	
4.0271	-0.197144	0.000305176	
4.0274	-0.197449	0.000457764	
4.02679	-0.197449	0.000762939	
4.0271	-0.195313	0.000457764	
4.02649	-0.193787	0.000762939	
4.02618	-0.192261	0.000762939	
4.02679	-0.192261	0.000305176	
4.0274	-0.192261	0.000305176	
4.02679	-0.193176	0.000305176	
4.0271	-0.192566	0.000457764	
4.0271	-0.192871	0.000305176	
4.0271	-0.192261	0.000305176	
4.0274	-0.192566	0.000305176	
4.02679	-0.193176	0.000305176	
4.02679	-0.189819	0.000457764	
4.02649	-0.188293	0.000610352	
4.0271	-0.187683	0.000457764	
4.02618	-0.187073	0.000610352	
4.02679	-0.187988	0.000610352	
4.02679	-0.187378	0.000457764	
4.0271	-0.187988	0.000610352	
4.0271	-0.187683	0.000152588	
4.02649	-0.187378	0.000915527	
4.02374	-0.184937	0.000610352	
4.02222	-0.183411	0.000457764	
4.02191	-0.182495	0.000762939	
4.02191	-0.183411	0.000610352	
4.02252	-0.1828	0.000610352	
4.02222	-0.183105	0.000457764	
4.0213	-0.182495	0.000457764	
4.02191	-0.180359	0	
4.02252	-0.178223	0.000152588	
4.02161	-0.177612	0.000915527	
4.02191	-0.178528	0	
4.02191	-0.177612	0	
4.02191	-0.178223	0.000152588	
4.02161	-0.175171	0	
4.0213	-0.17334	0.000305176	
4.02161	-0.173035	0.000305176	
4.02191	-0.172729	0	
4.02222	-0.172729	0.000457764	
4.02161	-0.17334	0.000305176	
4.02161	-0.170898	0.000762939	
4.02191	-0.168762	0.000305176	
4.02222	-0.167847	0.000457764	
4.02191	-0.168152	0.000457764	
4.02161	-0.167847	0.000305176	
4.02222	-0.165405	0.000305176	
4.02222	-0.163269	0.000152588	
4.02191	-0.162659	0.000457764	
4.02161	-0.163269	0	
4.02161	-0.162354	0.000152588	
4.02222	-0.160522	0.000610352	
4.02222	-0.158691	0.000762939	
4.02191	-0.158081	0.000457764	
4.02252	-0.157776	0.000762939	
4.02161	-0.15625	0.000610352	
4.02191	-0.154114	0.000610352	
4.02191	-0.154114	0.000457764	
4.02252	-0.153503	0.000457764	
4.02222	-0.151367	0.000305176	
4.02191	-0.149231	0	
4.02161	-0.148621	0.000305176	
4.02191	-0.148926	0.000762939	
4.0213	-0.146484	0.000457764	
4.02222	-0.144043	0.000915527	
4.02161	-0.143433	0.000152588	
4.02222	-0.144043	0.000152588	
4.02191	-0.141296	0.000457764	
4.02222	-0.13916	0.000305176	
4.02222	-0.13916	0.000457764	
4.02161	-0.136108	0.000152588	
4.02191	-0.133972	0.000915527	
4.02161	-0.133667	0.000457764	
4.02191	-0.13092	0.000152588	
4.02222	-0.128784	0	
4.02161	-0.129395	0.000610352	
4.02191	-0.128784	0.000305176	
4.02161	-0.126038	0.000457764	
4.02222	-0.124817	0.000305176	
4.02222	-0.124207	0.000610352	
4.02252	-0.12146	0.000457764	
4.02161	-0.119629	0.000915527	
4.02191	-0.119019	0.000610352	
4.02222	-0.116882	0.000457764	
4.02252	-0.115356	0.000457764	
4.0213	-0.114136	0.000305176	
4.01825	-0.111694	0.000305176	
4.01733	-0.109863	0	
4.01733	-0.106812	0.000305176	
4.01672	-0.10498	0.000152588	
4.01672	-0.104675	0	
4.01703	-0.101624	0.000457764	
4.01733	-0.100403	0.000457764	
4.01764	-0.0994873	0.000915527	
4.01703	-0.0961304	0.00106812	
4.01672	-0.0958252	0.000457764	
4.01672	-0.0918579	0.000305176	
4.01703	-0.0900269	0.000457764	
4.01703	-0.0900269	0.000610352	
4.01733	-0.0869751	0.000152588	
4.01733	-0.0857544	0	
4.01672	-0.0817871	0.000457764	
4.01703	-0.0799561	0.000305176	
4.01733	-0.0793457	0.000152588	
4.01703	-0.0769043	0.000457764	
4.01764	-0.0753784	0.000457764	
4.01764	-0.0726318	0.000762939	
4.01703	-0.0704956	0.000457764	
4.01764	-0.0701904	0.000457764	
4.01703	-0.067749	0.000457764	
4.01703	-0.065918	0.000305176	
4.01672	-0.0631714	0.000915527	
4.01794	-0.06073	0.000457764	
4.01733	-0.0576782	0.000152588	
4.01733	-0.055542	0.000152588	
4.01764	-0.0558472	0.000152588	
4.01764	-0.0524902	0.000457764	
4.01672	-0.0515747	0.000610352	
4.01703	-0.0482178	0.000152588	
4.01794	-0.0460815	0.000457764	
4.01672	-0.043335	0.000152588	
4.01794	-0.0408936	0.000457764	
4.01642	-0.0384521	0.000762939	
4.01611	-0.0360107	0.000152588	
4.01642	-0.0326538	0.000152588	
4.01367	-0.0317383	0.000457764	
4.01276	-0.0289917	0.000152588	
4.01215	-0.0262451	0.000152588	
4.01215	-0.0265503	0.000610352	
4.01215	-0.0231934	0.000152588	
4.01215	-0.0219727	0	
4.01154	-0.0177002	0.000457764	
4.01215	-0.017395	0.000610352	
4.01245	-0.0134277	0.000152588	
4.01215	-0.0112915	0.000915527	
4.01215	-0.00854492	0.000305176	
4.01184	-0.00732422	0.000610352	
4.01154	-0.00366211	0.000152588	
4.01215	-0.00183105	0.000457764	
4.01184	0.000915527	0.000457764	
4.01215	0.00213623	0.000305176	
4.01245	0.00549316	0.000305176	
4.01215	0.00793457	0.000457764	
4.01215	0.0109863	0.000152588	
4.01215	0.012207	0.000915527	
4.01215	0.0158691	0.000305176	
4.01245	0.0180054	0.000152588	
4.01154	0.0204468	0.000457764	
4.01215	0.022583	0.000610352	
4.01154	0.0256348	0.000457764	
4.01154	0.0268555	0.000305176	
4.01184	0.0305176	0.000457764	
4.01215	0.0320435	0.000762939	
4.01154	0.0350952	0	
4.00909	0.0372314	0.000457764	
4.00726	0.0405884	0.000305176	
4.00696	0.0424194	0.000152588	
4.00696	0.0454712	0.000152588	
4.00757	0.0469971	0.000305176	
4.00696	0.050354	0.000305176	
4.00665	0.0518799	0.000457764	
4.00726	0.0549316	0.000457764	
4.00696	0.0570679	0.000457764	
4.00757	0.0601196	0.000152588	
4.00726	0.0613403	0.000762939	
4.00665	0.0653076	0.000762939	
4.00696	0.0665283	0.000305176	
4.00726	0.0698853	0.000152588	
4.00635	0.0735474	0.000457764	
4.00757	0.0765991	0.000152588	
4.00726	0.0796509	0.000457764	
4.00726	0.0808716	0.000152588	
4.00696	0.0836182	0.000305176	
4.00665	0.085144	0.000457764	
4.00696	0.0881958	0.000915527	
4.00696	0.0906372	0.000762939	
4.00696	0.0930786	0.000915527	
4.00726	0.09552	0.000305176	
4.00696	0.0979614	0.000457764	
4.00757	0.100098	0.000457764	
4.00726	0.102539	0.000457764	
4.00757	0.10498	0.000305176	
4.00757	0.108337	0.000305176	
4.00726	0.110474	0.000152588	
4.00726	0.11322	0.000762939	
4.00665	0.115356	0.000610352	
4.0036	0.119019	0.000610352	
4.00269	0.119629	0	
4.00238	0.122375	0.000610352	
4.00208	0.125122	0	
4.00238	0.127563	0.000610352	
4.00177	0.1297	0.000457764	
4.00177	0.132446	0.000457764	
4.00177	0.134888	0	
4.00238	0.137634	0.000610352	
4.00208	0.138855	0.000305176	
4.00238	0.141907	0.000305176	
4.00269	0.143738	0.000152588	
4.00177	0.147095	0.000152588	
4.00177	0.149231	0.000915527	
4.00146	0.152588	0.000762939	
4.00208	0.154419	0.000915527	
4.00299	0.157471	0.000457764	
4.00238	0.159302	0.000152588	
4.00299	0.162048	0.000610352	
4.00177	0.164185	0.000610352	
4.00238	0.166626	0.000305176	
4.00208	0.168762	0.000152588	
4.00238	0.172424	0.000610352	
4.00146	0.173645	0	
4.00238	0.176392	0.000610352	
4.00208	0.178528	0.000305176	
4.00269	0.181274	0.000152588	
4.00269	0.183411	0.000152588	
4.00177	0.184326	0.000915527	
4.00208	0.186768	0.000457764	
4.00208	0.187988	0.000305176	
3.99933	0.191345	0.000305176	
3.9975	0.193787	0.000457764	
3.99658	0.195923	0.000152588	
3.9975	0.198669	0.000152588	
3.99719	0.201111	0.000457764	
3.99719	0.203857	0.000305176	
3.99689	0.205994	0	
3.99719	0.20752	0.000762939	
3.9975	0.208435	0.000610352	
3.9975	0.211487	0.000305176	
3.99689	0.212708	0.000457764	
3.99719	0.21637	0.000457764	
3.99719	0.217896	0.000305176	
3.99689	0.221252	0.000305176	
3.9975	0.223694	0.000305176	
3.99689	0.22644	0.000610352	
3.99719	0.228577	0.000152588	
3.99719	0.227966	0.000305176	
3.99689	0.230408	0.000152588	
3.9975	0.232849	0.000457764	
3.99628	0.235291	0.000457764	
3.99689	0.237122	0.000610352	
3.99689	0.237732	0.000305176	
3.99689	0.240784	0.000762939	
3.99658	0.242004	0.000610352	
3.99719	0.245667	0.000305176	
3.9975	0.247192	0	
3.99719	0.247803	0.000762939	
3.9978	0.250244	0.000457764	
3.99658	0.25238	-0.000152588	
3.99414	0.255432	0.000152588	
3.992	0.257263	0.000305176	
3.992	0.257568	0.000305176	
3.99261	0.260315	0.000305176	
3.99261	0.261841	0.000457764	
3.99139	0.262756	0.000305176	
3.992	0.265198	0.000457764	
3.99261	0.267639	0.000610352	
3.99261	0.270386	0.000457764	
3.99139	0.272217	0.000457764	
3.9917	0.272827	0.000610352	
3.9917	0.275269	0.000610352	
3.992	0.277405	0.000305176	
3.99261	0.280151	0.000457764	
3.99231	0.281677	0.000152588	
3.99261	0.281982	0.000457764	
3.992	0.284729	0	
3.99231	0.286865	0.000305176	
3.992	0.287476	0	
3.992	0.289612	0.000915527	
3.99261	0.291748	0.000152588	
3.99261	0.291748	0.000457764	
3.992	0.295105	0.000457764	
3.99231	0.295715	0.000762939	
3.99231	0.296936	0.000762939	
3.99261	0.299377	0.000305176	
3.99231	0.301819	0.000457764	
3.99261	0.302124	0.000152588	
3.9917	0.304871	0	
3.99231	0.306702	0.000610352	
3.99261	0.307312	0.000457764	
3.99261	0.306702	0.000305176	
3.992	0.310059	0.000457764	
3.992	0.31189	0.000762939	
3.98926	0.31189	0.000610352	
3.98743	0.313721	0.000762939	
3.98712	0.315552	0.000610352	
3.98743	0.317078	0.000305176	
3.98712	0.316772	0.000305176	
3.98773	0.319214	0.000457764	
3.98651	0.321045	0.000457764	
3.98743	0.321045	0.000305176	
3.98743	0.321655	0.000305176	
3.98743	0.324097	0.000305176	
3.98712	0.325928	0.000305176	
3.98804	0.325623	0.000457764	
3.98712	0.325623	0.000762939	
3.98712	0.329285	0.000610352	
3.98682	0.331116	0.000457764	
3.98682	0.331421	0.000457764	
3.98682	0.332031	0.000610352	
3.98743	0.333557	0.000610352	
3.98712	0.335388	0.000305176	
3.98712	0.335693	0.000152588	
3.98773	0.335999	0	
3.98743	0.336304	0.000457764	
3.98743	0.338745	0.000610352	
3.98682	0.340881	0.000305176	
3.98743	0.341492	0.000152588	
3.98712	0.340881	0.000762939	
3.98773	0.340271	0.000610352	
3.98743	0.343933	0.000305176	
3.98804	0.344849	0.000305176	
3.98743	0.346069	0.000762939	
3.98743	0.346069	0.000305176	
3.98712	0.346069	0.000457764	
3.98712	0.347595	0.000305176	
3.98712	0.350342	0	
3.98346	0.351563	0.000152588	
3.98285	0.350647	0.000762939	
3.98254	0.350647	0.000457764	
3.98224	0.353088	0.000762939	
3.98224	0.355225	0.000457764	
3.98254	0.355835	0.000762939	
3.98285	0.35553	0.000610352	
3.98193	0.355835	0.000305176	
3.98285	0.35614	0.000152588	
3.98285	0.358276	0.000610352	
3.98224	0.360107	0	
3.98254	0.361328	0.000457764	
3.98254	0.360718	0.000152588	
3.98224	0.360413	0	
3.98285	0.361328	0.000152588	
3.98315	0.360107	0.000152588	
3.98224	0.362854	0.000457764	
3.98254	0.365906	0.000152588	
3.98254	0.365601	0.000762939	
3.98224	0.365295	0.000610352	
3.98285	0.365906	0.000152588	
3.98346	0.365295	0.000457764	
3.98163	0.365295	0.000610352	
3.98254	0.364685	0.000457764	
3.98224	0.368042	0.000457764	
3.98285	0.369873	0.000457764	
3.98224	0.370789	0.000152588	
3.98285	0.371094	0.000305176	
3.98224	0.371094	0.000457764	
3.98254	0.370789	0	
3.98285	0.371399	0.000305176	
3.98285	0.370483	0.000610352	
3.98254	0.370789	0.000915527	
3.98315	0.371094	0.000305176	
3.98315	0.372925	0.000305176	
3.98315	0.374756	0.000915527	
3.98254	0.374756	0.000457764	
3.98254	0.375061	0.000305176	
3.98315	0.375061	-0.000152588	
3.98285	0.375061	0.000305176	
3.97949	0.375061	0	
3.97736	0.375366	0.000762939	
3.97827	0.375061	0.000305176	
3.97766	0.375061	0.000457764	
3.97797	0.375061	0.000610352	
3.97797	0.375061	0.000457764	
3.97766	0.375671	0.000457764	
3.97797	0.378113	0.000305176	
3.97797	0.380249	0.000457764	
3.97766	0.381165	0.000457764	
3.97766	0.380249	0.000152588	
3.97705	0.380859	0.000762939	
3.97705	0.379944	0.000152588	
3.97736	0.379944	0.000152588	
3.97705	0.379944	0.000305176	
3.97766	0.380554	0.000610352	
3.97827	0.379639	0.000305176	
3.97766	0.380859	0.000305176	
3.97797	0.380554	0.000305176	
3.97736	0.380554	0.000457764	
3.97736	0.380554	0.000152588	
3.97766	0.380554	0.000610352	
3.97705	0.379944	0.000610352	
3.97736	0.379944	0.000457764	
3.97797	0.380249	0.000305176	
3.97797	0.380859	0.000305176	
3.97797	0.379944	0	
3.97858	0.379944	0.000305176	
3.97705	0.380554	0.000457764	
3.97797	0.381165	0.000305176	
3.97766	0.380554	0	
3.97766	0.379944	0.000762939	
3.97797	0.380859	0.000610352	
3.97766	0.379944	0.000305176	
3.97736	0.379944	0.000457764	
3.97797	0.379944	0.000457764	
3.97736	0.380859	0.000305176	
3.97766	0.379944	0.000610352	
3.97736	0.380859	0.000305176	
3.97705	0.380249	0	
3.97736	0.380554	0.000152588	
3.97766	0.380249	0.000915527	
3.97705	0.380249	0.000457764	
3.97766	0.380249	0.000457764	
3.97766	0.380554	0.000305176	
3.97766	0.380249	0.000610352	
3.97705	0.380554	0.000762939	
3.97736	0.380249	0.000610352	
3.97736	0.380554	0.000305176	
3.97705	0.379639	0.000915527	
3.97736	0.380554	0.000152588	
3.97736	0.380554	0.000457764	
3.97766	0.380554	0.000457764	
3.97797	0.380249	0.000152588	
3.97827	0.379944	0.000457764	
3.97766	0.380554	0.000457764	
3.97766	0.380859	0.000305176	
3.97797	0.380249	0.000305176	
3.97736	0.380859	0.000762939	
3.97766	0.380249	0.000610352	
3.97705	0.377502	0.000305176	
3.97736	0.376282	0.000610352	
3.97736	0.375366	0.000305176	
3.97766	0.375671	0.000610352	
3.97766	0.375061	0.000457764	
3.97797	0.375061	0.000305176	
3.97736	0.375366	0.000152588	
3.97705	0.375977	0.000457764	
3.97797	0.375366	0	
3.97766	0.374756	0.000610352	
3.97797	0.375061	0.000152588	
3.97766	0.375366	0.000457764	
3.97705	0.375671	0.000915527	
3.97797	0.375061	0.000610352	
3.97766	0.372314	0.000457764	
3.97766	0.371704	0.000457764	
3.97736	0.370178	0.000610352	
3.97705	0.370483	0.000457764	
3.97705	0.370178	0.000305176	
3.97797	0.370178	-0.000152588	
3.97766	0.370178	0	
3.97797	0.370178	0.000610352	
3.97736	0.371094	0.000457764	
3.97736	0.370789	0.000457764	
3.97827	0.368042	0.000457764	
3.97736	0.366211	0.000457764	
3.97797	0.365601	0.000457764	
3.97797	0.365601	0.000610352	
3.97797	0.365295	0.000305176	
3.97827	0.36499	0.000915527	
3.97766	0.365295	0.000152588	
3.97705	0.365906	0.000762939	
3.97827	0.365601	0.000305176	
3.97797	0.362854	0	
3.97736	0.360718	0.000305176	
3.97766	0.360718	0.000152588	
3.97766	0.361328	0.000457764	
3.97797	0.360718	0.000610352	
3.97797	0.360413	0.000305176	
3.97766	0.360718	0.000915527	
3.97766	0.360413	0.000152588	
3.97766	0.358276	0.000457764	
3.97797	0.355835	0.000610352	
3.97766	0.355225	0.000457764	
3.97827	0.355835	0.000457764	
3.97736	0.355835	0.000457764	
3.97736	0.355835	0.000305176	
3.97827	0.356445	0.000152588	
3.97736	0.353088	0	
3.97797	0.351257	0.000152588	
3.97736	0.351257	0.000152588	
3.97736	0.351563	0.000915527	
3.97766	0.350647	0.000610352	
3.97827	0.350952	0.000457764	
3.97797	0.348511	0.000457764	
3.97766	0.34668	0.000457764	
3.97766	0.346069	0.000305176	
3.97766	0.346375	0.000305176	
3.97766	0.345459	0.000305176	
3.97766	0.345764	0	
3.97766	0.343018	0	
3.97766	0.341187	0.000915527	
3.97797	0.341187	0.000457764	
3.97736	0.340881	0.000152588	
3.97797	0.340576	0.000457764	
3.97797	0.340881	0.000457764	
3.97766	0.33783	0.000457764	
3.97797	0.336609	0.000457764	
3.97736	0.336304	0.000305176	
3.97766	0.336914	0.000152588	
3.97736	0.335999	0.000305176	
3.97736	0.336914	0.000457764	
3.97797	0.333557	0.000305176	
3.97736	0.331726	0.000152588	
3.97766	0.331116	0.000610352	
3.97766	0.330505	0.000305176	
3.97766	0.331421	0.000305176	
3.97797	0.328979	0	
3.97766	0.326843	0.000457764	
3.97797	0.326843	0.000762939	
3.97644	0.325928	0.000305176	
3.97705	0.326233	0.000915527	
3.97736	0.324402	0.000610352	
3.97705	0.32135	0.000305176	
3.97766	0.321045	0.000610352	
3.97766	0.32135	0	
3.97797	0.32074	0.000457764	
3.97797	0.318298	0.000305176	
3.97736	0.316467	0.000457764	
3.97766	0.316772	0.000457764	
3.97766	0.316467	0.000152588	
3.97766	0.316162	0.000915527	
3.97766	0.314636	0.000915527	
3.97858	0.31189	0.000152588	
3.98163	0.312195	0.000915527	
3.98224	0.31189	0.000457764	
3.98285	0.31189	0.000457764	
3.98254	0.309143	0.000305176	
3.98285	0.307007	0.000457764	
3.98224	0.306702	0.000152588	
3.98285	0.306396	0.000152588	
3.98285	0.306396	0.000305176	
3.98254	0.304565	0.000305176	
3.98163	0.301819	0.000762939	
3.98254	0.302124	0.000457764	
3.98254	0.302124	0.000457764	
3.98315	0.299377	0.000457764	
3.98285	0.297241	0.000762939	
3.98254	0.296631	0.000457764	
3.98285	0.296936	0.000457764	
3.98254	0.296936	0.000305176	
3.98285	0.294495	0.000305176	
3.98315	0.291443	0.000152588	
3.98285	0.292358	0.000305176	
3.98224	0.292664	0.000610352	
3.98315	0.289307	0.000305176	
3.98254	0.288391	0.000915527	
3.98224	0.28717	0.000305176	
3.98224	0.28717	0	
3.98254	0.287476	0.000762939	
3.9859	0.284729	0.000610352	
3.98682	0.283203	0.000152588	
3.98773	0.281677	0.000457764	
3.98712	0.281982	0.000457764	
3.98682	0.279541	0.000457764	
3.98712	0.278015	0.000305176	
3.98743	0.276794	0.000152588	
3.98773	0.277405	0.000457764	
3.98712	0.274048	0.000305176	
3.98743	0.272827	0.000152588	
3.98651	0.272217	0.000152588	
3.98682	0.272522	0.000915527	
3.98712	0.272522	0.000762939	
3.98743	0.26947	0.000457764	
3.98712	0.267334	0.000457764	
3.98743	0.267639	0.000915527	
3.98743	0.267334	0.000457764	
3.98743	0.265503	0.000762939	
3.98743	0.263062	0.000305176	
3.98712	0.262756	-0.000152588	
3.98682	0.262451	0.000457764	
3.98712	0.26123	0.000305176	
3.98743	0.257874	0.000305176	
3.98712	0.257263	0.000457764	
3.98743	0.257874	0.000457764	
3.98743	0.257874	0.000915527	
3.99078	0.255127	0.000610352	
3.9917	0.253296	0.000610352	
3.99231	0.252686	0.000305176	
3.99231	0.253601	0.000457764	
3.99261	0.250549	0.000610352	
3.99231	0.248108	0.000457764	
3.992	0.248108	0.000152588	
3.99231	0.247498	0.000305176	
3.99231	0.245361	0.000305176	
3.99261	0.243225	0.000457764	
3.992	0.24292	0.000305176	
3.99261	0.24292	0.000305176	
3.9917	0.240173	0.000457764	
3.99261	0.238037	0.000610352	
3.99231	0.238342	0.000762939	
3.99139	0.238342	0.000457764	
3.99261	0.238342	0.000762939	
3.99597	0.23468	0.000305176	
3.9975	0.233459	0.000152588	
3.99719	0.232849	0.000610352	
3.9975	0.233459	0.000457764	
3.99689	0.231018	0.000457764	
3.99689	0.228577	0.000152588	
3.9975	0.228577	0.000305176	
3.99719	0.227661	0.000457764	
3.99689	0.22583	0.000457764	
3.9975	0.223694	0.000915527	
3.99658	0.223389	0.000305176	
3.99658	0.223083	0.000152588	
3.99719	0.220642	0.0012207	
3.99658	0.219421	0.000762939	
3.99719	0.218506	0.000457764	
4.00055	0.219116	0.000305176	
4.00177	0.216064	0	
4.00208	0.214233	0	
4.00238	0.213623	0.000152588	
4.00208	0.213623	0.000610352	
4.00208	0.213318	0.000457764	
4.00208	0.211182	0.000152588	
4.00269	0.209961	0.000915527	
4.00238	0.20874	0.000610352	
4.00177	0.208435	0.000610352	
4.00238	0.205994	0.000305176	
4.00146	0.204163	0.000457764	
4.0033	0.203247	0.000152588	
4.00635	0.203857	0.000457764	
4.00665	0.201721	0.000305176	
4.00757	0.19928	0.000152588	
4.00787	0.198975	0.000457764	
4.00726	0.198669	0.000457764	
4.00696	0.198975	0.000457764	
4.00726	0.195618	0.000305176	
4.00726	0.194397	0.000762939	
4.00757	0.193787	0.000610352	
4.00665	0.193481	0.000305176	
4.00757	0.191345	0.000610352	
4.00757	0.189209	0.000762939	
4.01031	0.188599	0.000152588	
4.01154	0.188599	0	
4.01245	0.188293	0.000457764	
4.01154	0.186157	0.000457764	
4.01245	0.184631	0.000457764	
4.01215	0.183716	0.000305176	
4.01215	0.184021	0.000152588	
4.01215	0.181885	0.000152588	
4.01154	0.179443	0.000457764	
4.01276	0.179138	0.000915527	
4.0155	0.179443	0.000305176	
4.01703	0.179443	0.000305176	
4.01703	0.176392	0.000457764	
4.01733	0.174866	0.000915527	
4.01733	0.174866	0.000305176	
4.01764	0.174255	0.000305176	
4.01703	0.171509	0.000457764	
4.01733	0.169678	0.000152588	
4.01672	0.168762	0.000610352	
4.01733	0.169678	0.000610352	
4.01672	0.169067	0.000457764	
4.01703	0.166626	0.000610352	
4.02039	0.1651	0.000457764	
4.02161	0.1651	0.000610352	
4.02222	0.164795	0.000152588	
4.02161	0.162354	0.000305176	
4.02222	0.160522	0.000152588	
4.02222	0.159607	0.000305176	
4.02252	0.158997	0.000457764	
4.02191	0.159607	0.000305176	
4.02283	0.15686	0.000457764	
4.02557	0.155029	0.000305176	
4.02618	0.154724	0	
4.0271	0.154724	0.000762939	
4.0271	0.155029	0.000457764	
4.02679	0.151672	0.000762939	
4.0271	0.151367	0.000610352	
4.0274	0.150146	0.000762939	
4.0274	0.150146	0.000610352	
4.0274	0.150146	0.000915527	
4.03046	0.1474	0.000457764	
4.03168	0.145569	0.000457764	
4.03137	0.144958	0	
4.03198	0.144958	0.000915527	
4.03229	0.144958	0.000457764	
4.03198	0.142822	0.000152588	
4.03168	0.140686	0.000305176	
4.03198	0.140076	0.000152588	
4.03534	0.140076	0.000305176	
4.03595	0.140076	0.00106812	
4.03656	0.137939	0.000457764	
4.03717	0.135498	0.000457764	
4.03656	0.135803	0.000152588	
4.03717	0.134583	0.000915527	
4.03656	0.134888	0.000457764	
4.03687	0.132751	0.000152588	
4.04022	0.13092	0	
4.04144	0.130615	0.000305176	
4.04175	0.13031	0.000610352	
4.04175	0.129395	-0.000152588	
4.04114	0.127869	0.000457764	
4.04175	0.125732	0.000305176	
4.04083	0.124512	0.000152588	
4.04175	0.125122	0.000762939	
4.0448	0.125732	0.000457764	
4.04663	0.123291	0.000610352	
4.04572	0.121155	0.000762939	
4.04633	0.120239	0.000305176	
4.04663	0.12146	0.000305176	
4.04663	0.120544	0.000305176	
4.04785	0.120544	0	
4.04999	0.118408	0.000457764	
4.05151	0.115356	0.000305176	
4.05151	0.115662	0.000915527	
4.05151	0.115662	0.000305176	
4.05151	0.115662	0.000610352	
4.05121	0.112915	0.000762939	
4.05273	0.110779	0.000610352	
4.05487	0.110474	0.000305176	
4.05609	0.111084	0.000457764	
4.0564	0.111084	0.000457764	
4.05609	0.110474	0.000457764	
4.05609	0.108032	-0.000152588	
4.05701	0.105896	0.000610352	
4.05762	0.105591	0.000305176	
4.06006	0.105286	0.000762939	
4.06219	0.105896	0.000152588	
4.06097	0.105591	0.000457764	
4.06128	0.103455	0.000762939	
4.06158	0.101318	0.000915527	
4.0625	0.100403	0.000457764	
4.06433	0.100403	0.000457764	
4.06647	0.100708	0.000152588	
4.06616	0.100708	0.000610352	
4.06647	0.0991821	0.000610352	
4.06616	0.0961304	0.000457764	
4.06555	0.0958252	0.000305176	
4.06677	0.0961304	0.000152588	
4.07013	0.0964355	0.000457764	
4.07074	0.0961304	0.000457764	
4.07104	0.0933838	0	
4.07104	0.0915527	0.000457764	
4.07135	0.090332	0.000152588	
4.07166	0.0915527	0.000762939	
4.0741	0.0900269	0.000915527	
4.07562	0.0906372	0.000457764	
4.07593	0.0894165	0.000457764	
4.07623	0.0863647	0.000457764	
4.07623	0.0857544	0.000610352	
4.07715	0.0860596	0.000152588	
4.07959	0.0854492	0.000152588	
4.08142	0.0863647	0.000610352	
4.08112	0.083313	0.000457764	
4.08142	0.0817871	0.000457764	
4.08112	0.0808716	0.000610352	
4.08142	0.0811768	0.000610352	
4.08447	0.0811768	0.000610352	
4.08539	0.0811768	0.000610352	
4.08569	0.0808716	0.000305176	
4.0863	0.0799561	0.000305176	
4.08661	0.0769043	0.000610352	
4.08539	0.0775146	0.000457764	
4.08966	0.0769043	0.000152588	
4.09058	0.0772095	0.000305176	
4.09119	0.0775146	0.000152588	
4.09119	0.0747681	0.000610352	
4.09119	0.0723267	0.000610352	
4.09393	0.0720215	0.000305176	
4.09576	0.0720215	0.000610352	
4.09668	0.0723267	0.000915527	
4.09668	0.0720215	0.000152588	
4.09546	0.0720215	0.000457764	
4.09698	0.0695801	0.000305176	
4.10004	0.067749	0.000762939	
4.10095	0.0668335	0.000610352	
4.10065	0.0671387	0.000457764	
4.10156	0.0671387	0	
4.10156	0.0668335	0.000152588	
4.10431	0.0646973	0.000457764	
4.10583	0.0628662	0.000152588	
4.10583	0.0622559	0.000457764	
4.10645	0.0619507	0.000610352	
4.10553	0.062561	0.000457764	
4.10645	0.0622559	0.000915527	
4.10889	0.0616455	0.000610352	
4.11011	0.0598145	0.000457764	
4.11102	0.0576782	0.000610352	
4.11133	0.057373	0.000457764	
4.11133	0.057373	0.000305176	
4.11377	0.057373	-0.000152588	
4.1153	0.0579834	0.000305176	
4.1156	0.0567627	0.000610352	
4.1153	0.0549316	0	
4.11621	0.0521851	0.000610352	
4.11865	0.0521851	0.000457764	
4.12079	0.0518799	0.000762939	
4.12109	0.0524902	0.0012207	
4.12048	0.0521851	0.000610352	
4.12109	0.0518799	0.000305176	
4.12445	0.0497437	0.000457764	
4.12537	0.0476074	0.000762939	
4.12628	0.0473022	0.000457764	
4.12537	0.0469971	0	
4.12628	0.0466919	0.000610352	
4.12903	0.0473022	0.000610352	
4.12964	0.0479126	0.000457764	
4.13025	0.045166	0.000152588	
4.13025	0.0430298	0.000457764	
4.13116	0.0427246	0.000457764	
4.133	0.0424194	0.000610352	
4.13513	0.0427246	0.000610352	
4.13605	0.0430298	0.000610352	
4.13483	0.0405884	0	
4.13635	0.038147	0.000762939	
4.1391	0.0375366	0.000305176	
4.14093	0.0378418	0.000762939	
4.14063	0.0378418	0.000152588	
4.14063	0.0372314	0.000305176	
4.14093	0.0378418	0.000610352	
4.14368	0.0350952	0.000457764	
4.1449	0.0326538	0.000305176	
4.1452	0.0326538	0.000610352	
4.14551	0.032959	0.000305176	
4.14856	0.0332642	0.000762939	
4.15009	0.032959	0.000305176	
4.15039	0.032959	0.000610352	
4.15039	0.0302124	0.000152588	
4.15009	0.0283813	0.000457764	
4.15405	0.0280762	0.000305176	
4.15436	0.027771	0.000152588	
4.15466	0.027771	0.000152588	
4.15466	0.0271606	0.000457764	
4.15558	0.0271606	0.000305176	
4.15863	0.0259399	0.000305176	
4.15985	0.0231934	0.000457764	
4.16046	0.0231934	0.000305176	
4.16077	0.0234985	0.000610352	
4.16351	0.0234985	0.000610352	
4.16443	0.0231934	0.000610352	
4.16534	0.0231934	0.000610352	
4.16534	0.0222778	0.000610352	
4.16534	0.0204468	0.000305176	
4.1687	0.0180054	0.000152588	
4.17023	0.0177002	0.000457764	
4.17023	0.0180054	0.000457764	
4.17114	0.0180054	0.000152588	
4.17328	0.0177002	0.000457764	
4.1748	0.0183105	0.000457764	
4.17542	0.0152588	0.000152588	
4.17511	0.0134277	0.000610352	
4.17572	0.0134277	0.000305176	
4.17847	0.0131226	0.000457764	
4.17938	0.0128174	0.000152588	
4.17999	0.0131226	0.00106812	
4.1803	0.0131226	0.000457764	
4.18335	0.010376	0.000457764	
4.18488	0.00854492	0.000152588	
4.18518	0.00762939	0.000152588	
4.18549	0.0088501	0.000305176	
4.18518	0.0088501	0.000152588	
4.18823	0.00823975	0.000457764	
4.18945	0.00793457	0.000610352	
4.18945	0.00671387	0.000305176	
4.19067	0.00427246	0.000762939	
4.19281	0.00244141	0.000457764	
4.19434	0.00335693	0.000457764	
4.19434	0.00335693	0.000457764	
4.19525	0.00335693	0.000152588	
4.198	0.00305176	0.000457764	
4.19922	0.000915527	0.000152588	
4.19952	-0.000305176	0.000305176	
4.19983	-0.00152588	0.000305176	
4.20288	-0.00152588	0.000305176	
4.2041	-0.00152588	0.000915527	
4.20532	-0.0012207	0.000152588	
4.20532	-0.00183105	0.000152588	
4.20532	-0.0012207	0.000762939	
4.20746	-0.00396729	0.000610352	
4.20898	-0.00579834	0.000457764	
4.2099	-0.00610352	0.000762939	
4.21051	-0.00610352	0.000457764	
4.21265	-0.00610352	0.000457764	
4.21417	-0.00671387	-0.000152588	
4.21478	-0.00640869	0.000610352	
4.21509	-0.00793457	0.000457764	
4.21753	-0.0106812	0.000610352	
4.21936	-0.0109863	0.000305176	
4.21936	-0.0109863	0.000305176	
4.21997	-0.0109863	0.000610352	
4.22272	-0.0109863	0.000762939	
4.22455	-0.0115967	0.000610352	
4.22455	-0.0137329	0.000305176	
4.22485	-0.0158691	0.000305176	
4.22638	-0.0158691	0.000915527	
4.22943	-0.015564	0.000305176	
4.22974	-0.0161743	0.000305176	
4.23004	-0.0161743	0.000152588	
4.23279	-0.0161743	-0.000152588	
4.23401	-0.0161743	0.000305176	
4.23462	-0.0186157	0.000457764	
4.23431	-0.0210571	0.000305176	
4.23767	-0.0210571	0.000305176	
4.23889	-0.020752	0.000457764	
4.2392	-0.0210571	0.00106812	
4.2395	-0.020752	0.000457764	
4.24225	-0.020752	0.000610352	
4.24347	-0.0231934	0.000457764	
4.24438	-0.0250244	0.000457764	
4.24438	-0.0265503	0.000305176	
4.24744	-0.0259399	0.000305176	
4.24927	-0.0256348	0.000152588	
4.24927	-0.0262451	0.000457764	
4.24957	-0.0253296	0	
4.25293	-0.0259399	0.000610352	
4.25354	-0.0289917	0.000457764	
4.25323	-0.0302124	0.000305176	
4.25507	-0.0305176	0.000610352	
4.25751	-0.0305176	0.000457764	
4.25873	-0.0308228	0.000762939	
4.25873	-0.0311279	0.000457764	
4.25995	-0.0317383	0.000610352	
4.26208	-0.0305176	0.000610352	
4.26361	-0.0344849	-0.000152588	
4.26361	-0.03479	0.000305176	
4.26453	-0.0354004	0.000305176	
4.26758	-0.0360107	0.000152588	
4.26788	-0.0354004	0.000305176	
4.26849	-0.0360107	0.000152588	
4.27246	-0.0354004	0.000610352	
4.27338	-0.0378418	0.000610352	
4.27368	-0.0396729	0.000457764	
4.27399	-0.0402832	0.000762939	
4.27643	-0.0411987	0	
4.27856	-0.0405884	0.000762939	
4.27856	-0.0405884	0.000305176	
4.27979	-0.0405884	0.000305176	
4.28253	-0.0405884	-0.000152588	
4.28314	-0.043335	-0.000152588	
4.28375	-0.0454712	0.000610352	
4.28436	-0.045166	0.000305176	
4.2868	-0.0460815	0.000152588	
4.28772	-0.0454712	0.000610352	
4.28925	-0.0454712	0.000457764	
4.29199	-0.0460815	0.000915527	
4.29321	-0.0457764	0.000457764	
4.29352	-0.0479126	0.000305176	
4.29413	-0.0500488	0.000457764	
4.29718	-0.0506592	0.000457764	
4.29779	-0.0512695	0.000305176	
4.2984	-0.050354	0	
4.29901	-0.050354	0.000152588	
4.30176	-0.050354	0.000305176	
4.30328	-0.0506592	0	
4.30267	-0.050354	0.000457764	
4.30634	-0.0537109	0.000152588	
4.30756	-0.0552368	0.000762939	
4.30847	-0.055542	0.000762939	
4.30817	-0.0552368	0.000762939	
4.31091	-0.0552368	0.000457764	
4.31305	-0.0552368	0.000762939	
4.31274	-0.0552368	0.000457764	
4.31366	-0.055542	0.000305176	
4.31671	-0.0582886	0.000152588	
4.31824	-0.0604248	0.000457764	
4.31854	-0.0604248	0.000457764	
4.32129	-0.06073	0.000152588	
4.32281	-0.06073	0.000152588	
4.32312	-0.0604248	0.000305176	
4.32373	-0.0604248	0.000457764	
4.32587	-0.06073	0.000610352	
4.328	-0.0604248	0.000457764	
4.328	-0.062561	0.000305176	
4.33105	-0.0650024	0.000152588	
4.33258	-0.0653076	0.000915527	
4.33289	-0.0650024	0.000762939	
4.3338	-0.0653076	0.000457764	
4.33624	-0.0653076	0	
4.33716	-0.0656128	0	
4.33807	-0.0643921	0.000305176	
4.34052	-0.0674438	0.000457764	
4.34204	-0.0701904	0.000305176	
4.34204	-0.0698853	0.000457764	
4.34265	-0.0704956	0.000305176	
4.34601	-0.0698853	0.000915527	
4.34753	-0.0701904	0.000305176	
4.34753	-0.0701904	0.000762939	
4.35028	-0.0704956	0.000305176	
4.35242	-0.0708008	0.000762939	
4.35272	-0.072937	0.000457764	
4.35486	-0.0744629	0	
4.35791	-0.0759888	0.000305176	
4.3573	-0.0750732	0.000457764	
4.3576	-0.0750732	0.000305176	
4.36096	-0.0750732	0.000457764	
4.36188	-0.0747681	0.000457764	
4.36249	-0.0750732	0.000305176	
4.36584	-0.0744629	0.000762939	
4.36707	-0.0769043	0.000762939	
4.36646	-0.0793457	0.000305176	
4.36798	-0.0799561	0.000610352	
4.37042	-0.0802612	0.000152588	
4.37195	-0.0796509	0.000305176	
4.37225	-0.0802612	0.000305176	
4.375	-0.0802612	0.000457764	
4.37714	-0.0799561	0.000457764	
4.37775	-0.0799561	0.000457764	
4.38019	-0.0823975	0.000305176	
4.38232	-0.0845337	0.000305176	
4.38354	-0.0848389	0.000305176	
4.38538	-0.0854492	0.000457764	
4.38629	-0.0854492	0.000305176	
4.38721	-0.085144	0.000610352	
4.38721	-0.085144	0.000152588	
4.38965	-0.085144	0.000610352	
4.39148	-0.085144	0.000457764	
4.39209	-0.0848389	0.000457764	
4.39575	-0.0878906	0	
4.39606	-0.0891113	0.000457764	
4.39697	-0.0897217	0.000457764	
4.40063	-0.0897217	0.000305176	
4.40155	-0.0900269	0.000152588	
4.40216	-0.0900269	0.000305176	
4.40521	-0.0897217	0.000457764	
4.40674	-0.0900269	0.00106812	
4.40613	-0.0897217	0.000915527	
4.40735	-0.0918579	0.000152588	
4.4101	-0.0946045	0.000457764	
4.41101	-0.0942993	0.000457764	
4.41254	-0.0942993	0.000305176	
4.41528	-0.0949097	0	
4.4165	-0.0946045	0.000305176	
4.41742	-0.0946045	0.000305176	
4.41986	-0.0939941	0	
4.42078	-0.09552	0.000610352	
4.42169	-0.0939941	0.000152588	
4.42505	-0.0967407	0.000305176	
4.42596	-0.0994873	0.000610352	
4.42749	-0.0994873	0.000610352	
4.43024	-0.0994873	0.000457764	
4.43085	-0.0991821	0.000457764	
4.43207	-0.0997925	0.000305176	
4.4342	-0.0991821	0.000610352	
4.43604	-0.100098	-0.000152588	
4.43695	-0.0991821	0.000457764	
4.4397	-0.098877	0.000305176	
4.44122	-0.101929	0.000305176	
4.44183	-0.10376	0.000152588	
4.44458	-0.10437	0.000305176	
4.4455	-0.10437	0.000762939	
4.44702	-0.104065	0.000610352	
4.44916	-0.104675	0.000610352	
4.45099	-0.10376	0.000457764	
4.45221	-0.104675	0.000152588	
4.45465	-0.104675	0.000915527	
4.45557	-0.104675	0.000915527	
4.45648	-0.104675	0.000457764	
4.45953	-0.106506	0.000152588	
4.46136	-0.108643	0.000457764	
4.46136	-0.109863	0.000457764	
4.46411	-0.109558	0	
4.46533	-0.110168	0.000457764	
4.46564	-0.108948	0.000305176	
4.4696	-0.109253	0	
4.47083	-0.108948	0.000762939	
4.47083	-0.108948	0.000457764	
4.47418	-0.109558	0.000457764	
4.4754	-0.109253	0.000457764	
4.47662	-0.111694	0.000915527	
4.47968	-0.113831	0.000305176	
4.47998	-0.114136	0.000152588	
4.4812	-0.114136	0.000152588	
4.48395	-0.114441	0.000457764	
4.48517	-0.114746	0.000152588	
4.48669	-0.114441	0.000457764	
4.48914	-0.114441	0.000305176	
4.49097	-0.114441	0.000305176	
4.49127	-0.113831	0.000915527	
4.49371	-0.114441	0.000762939	
4.49554	-0.114136	0.000610352	
4.49585	-0.116882	0.000457764	
4.49921	-0.119019	0.000457764	
4.50012	-0.119934	0.000610352	
4.50134	-0.119629	0	
4.50348	-0.119934	0.000457764	
4.505	-0.119019	0.000152588	
4.50531	-0.118713	0.000457764	
4.50897	-0.119324	0.000457764	
4.50989	-0.119019	0.000305176	
4.5105	-0.119019	0	
4.51385	-0.119019	0.000610352	
4.51538	-0.119934	0.000457764	
4.51569	-0.12146	0.000152588	
4.51874	-0.123291	0.000457764	
4.51996	-0.124512	0.000457764	
4.52301	-0.124512	0.000457764	
4.52454	-0.124817	0.000457764	
4.52606	-0.124817	0.000152588	
4.5285	-0.124207	0.000152588	
4.52972	-0.124512	0.000457764	
4.53094	-0.124207	0.000457764	
4.53339	-0.124207	0.000305176	
4.53461	-0.124207	0.000915527	
4.53522	-0.124512	0	
4.53827	-0.126648	0.000915527	
4.53949	-0.127869	0.000762939	
4.54071	-0.128479	0.000762939	
4.54315	-0.128784	0.000305176	
4.54468	-0.128479	0.000457764	
4.54559	-0.128784	0.000305176	
4.54803	-0.129395	-0.000152588	
4.55078	-0.129395	0.000305176	
4.55322	-0.129089	0.000305176	
4.55475	-0.129089	0.000152588	
4.55505	-0.129395	0.000762939	
4.55811	-0.129395	0.000305176	
4.55933	-0.128784	0.000152588	
4.56024	-0.13092	0.000610352	
4.56238	-0.133057	0.000915527	
4.56543	-0.133972	0.000610352	
4.56604	-0.133972	0.000610352	
4.56787	-0.133667	0.000610352	
4.5697	-0.134277	0.000457764	
4.57336	-0.133972	0	
4.57428	-0.134277	0.000305176	
4.5752	-0.134277	0.000610352	
4.57764	-0.134277	0.000305176	
4.57886	-0.134277	0.000457764	
4.58008	-0.134277	0.000152588	
4.58252	-0.133362	0.000305176	
4.58374	-0.133667	0.000762939	
4.58496	-0.136719	0.000610352	
4.58771	-0.13855	0.000457764	
4.58893	-0.138855	0	
4.59259	-0.13855	0.000762939	
4.59412	-0.138855	0.000610352	
4.59412	-0.138245	0.000457764	
4.59747	-0.13855	0.000152588	
4.59839	-0.13916	0	
4.59991	-0.138855	0.000152588	
4.60297	-0.138855	0.000457764	
4.60358	-0.138245	0.000457764	
4.6048	-0.13916	0.000457764	
4.60815	-0.138855	0.000152588	
4.60938	-0.13855	0.000915527	
4.61304	-0.140991	0.000915527	
4.61426	-0.143127	0.000305176	
4.61487	-0.144043	0.000457764	
4.61761	-0.144348	0.000610352	
4.61853	-0.144348	0.000457764	
4.61975	-0.143433	0.000305176	
4.62189	-0.144043	0.000305176	
4.62433	-0.144348	0.000305176	
4.62433	-0.143433	-0.000152588	
4.62769	-0.143433	0.000915527	
4.62952	-0.143738	0.000305176	
4.63196	-0.143738	0.000152588	
4.63379	-0.143127	0.000762939	
4.63379	-0.143738	0.000762939	
4.63654	-0.143738	0.000610352	
4.63867	-0.14679	0.000457764	
4.63928	-0.148621	0.000457764	
4.64203	-0.148315	0.000610352	
4.64417	-0.148621	0	
4.64691	-0.148926	0.000762939	
4.64783	-0.148621	0.000457764	
4.64874	-0.148621	0.000457764	
4.6521	-0.148926	0.000152588	
4.65332	-0.148926	0.000610352	
4.65363	-0.148621	0.000610352	
4.65668	-0.148621	0.000457764	
4.65851	-0.148315	0.000457764	
4.66156	-0.148621	0.000915527	
4.66309	-0.148926	-0.000152588	
4.6637	-0.148926	0.000762939	
4.66644	-0.148315	0.000305176	
4.66797	-0.150757	0.000457764	
4.66858	-0.152893	0.000305176	
4.67194	-0.154114	-0.000152588	
4.67316	-0.153809	0.000152588	
4.67651	-0.153503	0.000305176	
4.67804	-0.153503	0.000152588	
4.67865	-0.153503	0.000152588	
4.6817	-0.153503	0.000305176	
4.68323	-0.153809	0.000457764	
4.68384	-0.153503	0.000762939	
4.68689	-0.153809	0.000152588	
4.68781	-0.153809	0.000457764	
4.69147	-0.153503	0.000305176	
4.69269	-0.153809	0.000305176	
4.6936	-0.153809	0.000152588	
4.69574	-0.154114	0.000457764	
4.69757	-0.154114	0.000457764	
4.69879	-0.155945	0.000152588	
4.70154	-0.158081	0.000610352	
4.70306	-0.157776	0.000457764	
4.70581	-0.158386	0.000762939	
4.70734	-0.158691	0.000762939	
4.70795	-0.157776	0.000915527	
4.7113	-0.157471	0.000762939	
4.71252	-0.158691	0.000762939	
4.71344	-0.158081	0.000457764	
4.71527	-0.158081	0.000305176	
4.71771	-0.157471	-0.000152588	
4.72046	-0.158081	0.000762939	
4.7226	-0.158386	0.000305176	
4.7226	-0.158081	0.000610352	
4.72626	-0.158386	0.000152588	
4.72748	-0.158691	0.000457764	
4.73022	-0.158691	0.000305176	
4.73175	-0.158386	0.000457764	
4.73267	-0.159302	0.000457764	
4.73541	-0.158386	0.000457764	
4.73694	-0.158691	0	
4.73755	-0.160828	0.000762939	
4.7403	-0.162964	0.000305176	
4.74213	-0.162964	0.000457764	
4.74457	-0.163574	0.000305176	
4.7467	-0.163269	0	
4.74731	-0.163574	0.000305176	
4.75006	-0.163269	0.000762939	
4.7522	-0.163574	0.000152588	
4.75281	-0.163269	0.000610352	
4.75555	-0.163269	0	
4.758	-0.162964	0.00106812	
4.76074	-0.163269	0.000457764	
4.76196	-0.163269	0.000305176	
4.76227	-0.163269	0.000457764	
4.76471	-0.163879	0.000915527	
4.76654	-0.162964	0.000305176	
4.7702	-0.163269	0.000457764	
4.77112	-0.162964	0.000152588	
4.77264	-0.162964	0.000457764	
4.77478	-0.162659	0	
4.77692	-0.163879	0.000610352	
4.77722	-0.163574	0	
4.78027	-0.163574	0.000152588	
4.78119	-0.162659	0.000457764	
4.78455	-0.162659	0.000762939	
4.78638	-0.1651	0.000305176	
4.78699	-0.167236	0.000457764	
4.79034	-0.168457	0.000457764	
4.79187	-0.168152	0.000610352	
4.79523	-0.167847	0	
4.79675	-0.167847	0.000457764	
4.79736	-0.167847	0.000305176	
4.7998	-0.167542	0.000457764	
4.80072	-0.167847	0.000762939	
4.80194	-0.168152	0.000457764	
4.80499	-0.167542	0.000305176	
4.80682	-0.167847	0.000457764	
4.80957	-0.168457	0.000610352	
4.81049	-0.168457	0.000457764	
4.81201	-0.168152	0.000152588	
4.81445	-0.167542	0.000610352	
4.81598	-0.168152	0.000305176	
4.81964	-0.167847	0.000457764	
4.82117	-0.168152	0.000305176	
4.82147	-0.168152	0.000152588	
4.82452	-0.168457	0.000457764	
4.82635	-0.167847	0.000305176	
4.82971	-0.168457	0.000305176	
4.83063	-0.168152	0.000457764	
4.83124	-0.168152	0.000152588	
4.83429	-0.167847	0.000762939	
4.83551	-0.167847	0.000457764	
4.83643	-0.168152	0.000457764	
4.83978	-0.167847	0.000457764	
4.841	-0.168457	0.000305176	
4.84406	-0.167847	0.000457764	
4.84497	-0.167542	0.000610352	
4.8468	-0.168457	0.000457764	
4.84924	-0.168457	0.000152588	
4.85077	-0.171204	0	
4.85535	-0.172424	0.000152588	
4.85504	-0.17334	0.000152588	
4.85565	-0.17334	0.000610352	
4.85901	-0.17334	0.000457764	
4.86115	-0.173035	0.000915527	
4.8645	-0.172729	0.000152588	
4.86481	-0.17334	0.000457764	
4.86603	-0.173035	0.000762939	
4.86908	-0.172729	0.000457764	
4.87	-0.173035	0	
4.87122	-0.17334	0.000305176	
4.87335	-0.173035	0	
4.87549	-0.17395	0	
4.87885	-0.17334	0.000305176	
4.87946	-0.173035	0.000152588	
4.88098	-0.173035	0.000152588	
4.88342	-0.173035	0.000610352	
4.88495	-0.172119	0.000305176	
4.88861	-0.172729	0.000610352	
4.89014	-0.172424	0.000152588	
4.89044	-0.172729	0.000610352	
4.89319	-0.172119	0.000305176	
4.89502	-0.173645	0.000305176	
4.89838	-0.172729	0.000305176	
4.8999	-0.173035	0.000152588	
4.90082	-0.172729	0.000305176	
4.90326	-0.173035	0.000305176	
4.90509	-0.17334	0.000152588	
4.90875	-0.173645	0.000457764	
4.90967	-0.17334	0.000305176	
4.91028	-0.173035	0.00106812	
4.91394	-0.172424	0.000762939	
4.91425	-0.173035	0.000305176	
4.91547	-0.172729	0.000152588	
4.91852	-0.173035	0.000610352	
4.92035	-0.173035	0.000610352	
4.9234	-0.173035	0.000457764	
4.92432	-0.172729	0.000152588	
4.92462	-0.173645	0.000457764	
4.92798	-0.17334	0.000152588	
4.9292	-0.173035	0.000610352	
4.93256	-0.173035	0.000305176	
4.93408	-0.173035	0.000152588	
4.93469	-0.17334	0.000610352	
4.93774	-0.172424	0.000762939	
4.93896	-0.17334	0.000762939	
4.94232	-0.172729	0.000152588	
4.94385	-0.173035	0.000152588	
4.94537	-0.173035	0.000610352	
4.94751	-0.172119	0.000152588	
4.94965	-0.172729	0.000457764	
4.953	-0.173035	0.000152588	
4.95392	-0.175781	0.000305176	
4.95453	-0.177917	0.000610352	
4.95789	-0.177917	0.000305176	
4.9588	-0.177612	0.000610352	
4.95911	-0.177917	0.000457764	
4.96216	-0.177917	0.000762939	
4.96521	-0.177307	0.000305176	
4.96735	-0.177612	-0.000152588	
4.96918	-0.177917	0.000305176	
4.96979	-0.178223	0.000457764	
4.97253	-0.178528	0.000457764	
4.97467	-0.178223	0.000305176	
4.97681	-0.177307	0	
4.97803	-0.178223	0.000152588	
4.97925	-0.177612	0.000152588	
4.98199	-0.178528	0	
4.98413	-0.177612	0.000457764	
4.98779	-0.178528	-0.000152588	
4.9884	-0.178223	0.000915527	
4.98901	-0.178223	0.000305176	
4.99207	-0.178833	0.000305176	
4.9939	-0.177307	0.000457764	
4.99725	-0.177917	0.000762939	
4.99847	-0.177917	0.000457764	
5	-0.177612	0.000457764	
5.00183	-0.178528	0	
5.00275	-0.177612	0.000152588	
5.00397	-0.178223	0	
5.00702	-0.177917	0.000762939	
5.00916	-0.177917	0.000305176	
5.01221	-0.178223	0.000457764	
5.01373	-0.177917	0.000457764	
5.01404	-0.177917	0.000610352	
5.01678	-0.178528	0.000610352	
5.01831	-0.177917	0.000305176	
5.02197	-0.177917	0.000762939	
5.02319	-0.177612	0.000305176	
5.0235	-0.178223	0.000152588	
5.02594	-0.178223	0.000457764	
5.02838	-0.178528	0.000457764	
5.03174	-0.178223	0.000305176	
5.03265	-0.178223	0.000457764	
5.03326	-0.178833	0.000152588	
5.03632	-0.177612	0.000457764	
5.03815	-0.178223	0.000305176	
5.03906	-0.177307	0.000457764	
5.0415	-0.177917	0.000305176	
5.04395	-0.178223	0.000457764	
5.04639	-0.177612	0.000610352	
5.04852	-0.177307	0.000152588	
5.04822	-0.177917	0.000610352	
5.05096	-0.178223	0.000152588	
5.05341	-0.178223	0	
5.05615	-0.178528	0	
5.05768	-0.177917	0.000305176	
5.05859	-0.178223	0.000305176	
5.06104	-0.177917	0	
5.06317	-0.178223	0.000152588	
5.06592	-0.177917	0.000915527	
5.06714	-0.177612	0.000457764	
5.06836	-0.178223	0.000610352	
5.0708	-0.177612	0.000457764	
5.07263	-0.177612	0.000457764	
5.07324	-0.177917	0.000457764	
5.07629	-0.177917	0.000152588	
5.07751	-0.178528	0.000152588	
5.08026	-0.177612	0.000457764	
5.08118	-0.178223	0.000305176	
5.08209	-0.177612	0.000762939	
5.08545	-0.177917	0.000305176	
5.08698	-0.178223	0.000152588	
5.09003	-0.178223	0.000762939	
5.09125	-0.178223	0.000610352	
5.09186	-0.177917	0.000457764	
5.09491	-0.177917	0.000610352	
5.09705	-0.178223	0.000457764	
5.10071	-0.178528	0.000305176	
5.10193	-0.179443	-0.000152588	
5.10162	-0.177307	0.000762939	
5.10529	-0.178833	0.000305176	
5.1062	-0.178223	0.000457764	
5.10712	-0.178223	0.000305176	
5.10956	-0.178528	0.000305176	
5.11169	-0.177917	0.000305176	
5.11505	-0.177917	0.000610352	
5.11597	-0.177917	0.000610352	
5.11749	-0.177917	0.000305176	
5.11993	-0.177612	0.000305176	
5.12177	-0.177917	0.000762939	
5.12482	-0.177917	0.000457764	
5.12634	-0.178528	0.000305176	
5.12695	-0.177917	0	
5.12939	-0.178223	0	
5.13092	-0.177917	0.000305176	
5.13214	-0.177612	0.000457764	
5.13458	-0.177917	0.000152588	
5.13702	-0.178223	0.000457764	
5.14008	-0.177612	0.000152588	
5.14099	-0.177917	0.000915527	
5.14221	-0.177612	0.000457764	
5.14435	-0.177612	0.000152588	
5.14679	-0.178528	0.000762939	
5.14954	-0.177307	0.000610352	
5.15076	-0.178223	0.000457764	
5.15137	-0.177917	0.000457764	
5.15411	-0.177917	0.000152588	
5.15564	-0.177612	0.000152588	
5.15686	-0.178223	0.000152588	
5.1593	-0.177307	0.000610352	
5.16083	-0.177917	0.000457764	
5.16449	-0.177917	0.000305176	
5.16602	-0.177917	0.000915527	
5.16571	-0.177307	0.000762939	
5.16907	-0.177612	0.000762939	
5.17029	-0.177612	0.000457764	
5.1709	-0.178528	0.000457764	
5.17456	-0.177612	0.000152588	
5.17609	-0.177612	0.000152588	
5.17883	-0.177612	0.000762939	
5.18066	-0.177917	0.000305176	
5.18066	-0.177917	0.000457764	
5.18402	-0.177307	0.000305176	
5.18646	-0.177612	0.000152588	
5.1889	-0.178223	0.000457764	
5.19043	-0.177917	0.000457764	
5.19135	-0.178223	0.000762939	
5.19379	-0.177307	0.000762939	
5.19562	-0.177917	0.000305176	
5.19592	-0.178223	0.000610352	
5.19867	-0.178528	0.000457764	
5.2005	-0.178223	0.000305176	
5.20325	-0.177917	0.000152588	
5.20477	-0.177917	0.000305176	
5.20599	-0.177307	0.000305176	
5.20905	-0.177612	0.000610352	
5.21027	-0.178223	0.000457764	
5.21088	-0.177307	0.000610352	
5.21362	-0.178223	-0.000152588	
5.21545	-0.177917	0.000610352	
5.21881	-0.177917	0.000457764	
5.21973	-0.177917	0.000457764	
5.22003	-0.177307	0.000457764	
5.22308	-0.177917	0.000152588	
5.22461	-0.177612	0.000457764	
5.22614	-0.177917	0.000457764	
5.22827	-0.177917	0.000152588	
5.23071	-0.177917	0.000457764	
5.23376	-0.178223	0.000152588	
5.23438	-0.177307	0.000457764	
5.2356	-0.177612	0.000305176	
5.23834	-0.177917	0.000305176	
5.23987	-0.177917	0.000457764	
5.23987	-0.177612	0.000610352	
5.24353	-0.177917	0.000457764	
5.24506	-0.177917	0.000457764	
5.2478	-0.178223	0.000610352	
5.24872	-0.177612	0.000305176	
5.24963	-0.178223	0.000152588	
5.25299	-0.178223	0.000762939	
5.25421	-0.177307	0.000152588	
5.25543	-0.178223	0.000305176	
5.25696	-0.177917	0	
5.2597	-0.177917	0.000305176	
5.26306	-0.177917	0.000610352	
5.26398	-0.177917	0.000457764	
5.26489	-0.178223	0.000457764	
5.26825	-0.177917	0.000305176	
5.26917	-0.178223	0.000457764	
5.26917	-0.177917	0.000915527	
5.27283	-0.177307	0.000152588	
5.27435	-0.178223	0.000457764	
5.2771	-0.178223	0.000305176	
5.27893	-0.177612	0.000152588	
5.28046	-0.177917	0.000152588	
5.28229	-0.177917	0.000152588	
5.28412	-0.177612	0	
5.28442	-0.177307	0.000457764	
5.28748	-0.177917	0	
5.289	-0.177917	0.000915527	
5.29236	-0.178223	0.000762939	
5.29388	-0.178223	0.000457764	
5.29419	-0.178223	0.000305176	
5.29785	-0.178833	0.000457764	
5.29877	-0.177612	0.000457764	
5.29938	-0.178223	0.000610352	
5.30212	-0.178528	0.000305176	
5.30396	-0.177917	0.000457764	
5.30396	-0.177917	0.000152588	
5.3067	-0.178223	0.000762939	
5.30914	-0.177612	0.000457764	
5.31158	-0.178223	0.000610352	
5.31342	-0.178223	0.000457764	
5.31403	-0.177612	0.000762939	
5.31677	-0.177917	0.000305176	
5.31799	-0.177917	0.000152588	
5.31952	-0.178223	0.000915527	
5.32227	-0.177917	0.000457764	
5.32349	-0.177917	0.000305176	
5.32715	-0.177917	0.000457764	
5.32806	-0.177917	0.000457764	
5.32898	-0.178223	0.000457764	
5.33264	-0.177917	0.000457764	
5.33325	-0.177917	0.000305176	
5.33295	-0.178223	0.000610352	
5.33661	-0.177917	0.000305176	
5.33813	-0.177612	0.000457764	
5.33905	-0.178223	0.000457764	
5.34149	-0.177917	0	
5.34363	-0.178223	0.000762939	
5.34668	-0.178223	0.000305176	
5.34851	-0.177612	0.000457764	
5.34912	-0.178223	0.000152588	
5.35156	-0.177917	0.000152588	
5.35248	-0.177612	0.000305176	
5.354	-0.178223	0.000457764	
5.35583	-0.178223	0.000457764	
5.35797	-0.177307	0.000762939	
5.35797	-0.177612	0	
5.36133	-0.177612	0.000762939	
5.36346	-0.177917	0.000305176	
5.36713	-0.177612	0.000457764	
5.36774	-0.177612	0.000610352	
5.36896	-0.177917	0.000762939	
5.3714	-0.178223	0.000457764	
5.37323	-0.177917	0.000305176	
5.37354	-0.175781	0	
5.37598	-0.173645	0.000610352	
5.3775	-0.173035	0.000152588	
5.37842	-0.172729	0.000152588	
5.38086	-0.172729	0.000305176	
5.38361	-0.172729	0.000305176	
5.38605	-0.17334	0.000305176	
5.38727	-0.172729	0.000457764	
5.38818	-0.173035	0.000762939	
5.39093	-0.173035	0.000457764	
5.39215	-0.172729	0.000457764	
5.39307	-0.172729	0.000762939	
5.39551	-0.173035	0.000457764	
5.39734	-0.172729	0.000610352	
5.39795	-0.173035	0.000152588	
5.401	-0.173035	0.000610352	
5.40283	-0.17334	0.000305176	
5.40588	-0.173035	0.000152588	
5.4071	-0.17395	0.000457764	
5.40802	-0.172424	0.000610352	
5.41107	-0.172729	0.000457764	
5.41138	-0.172424	0.000305176	
5.4129	-0.173035	0.000305176	
5.41626	-0.172729	0.000915527	
5.41748	-0.17334	0.000610352	
5.41809	-0.172729	0.000610352	
5.42114	-0.172729	0.000305176	
5.42175	-0.173035	0.000305176	
5.42297	-0.173035	0.000152588	
5.42572	-0.17334	0.000305176	
5.42633	-0.173035	0.000152588	
5.42786	-0.17334	0.000305176	
5.43091	-0.172424	0	
5.43243	-0.173035	0.000610352	
5.4361	-0.173035	0.000610352	
5.43701	-0.173035	0.000457764	
5.43854	-0.17334	0.000305176	
5.44037	-0.173035	0.000457764	
5.4422	-0.17334	0.000305176	
5.44281	-0.172729	0.000457764	
5.44586	-0.172119	0.000152588	
5.44647	-0.173035	0.000457764	
5.448	-0.172729	0	
5.45044	-0.173035	0.000915527	
5.45166	-0.172729	0.000457764	
5.45197	-0.172729	0.000457764	
5.45471	-0.173035	0.000457764	
5.45593	-0.172424	0.000762939	
5.45685	-0.172424	0.000915527	
5.46051	-0.173645	0.000457764	
5.46173	-0.17334	0.000457764	
5.4657	-0.173035	0.000152588	
5.46631	-0.17334	0.000305176	
5.46722	-0.172729	0.000305176	
5.46997	-0.173035	0.000305176	
5.4715	-0.169983	0.000457764	
5.47211	-0.168152	0.000610352	
5.47546	-0.168152	0.000152588	
5.47607	-0.167847	0.000457764	
5.4776	-0.168152	0.000305176	
5.48035	-0.168152	0.000762939	
5.48126	-0.168457	0.000457764	
5.48187	-0.168457	0.000152588	
5.48462	-0.167542	0.000915527	
5.48615	-0.168457	0.000305176	
5.48676	-0.168152	0.000610352	
5.4895	-0.168457	0.000305176	
5.49103	-0.168152	0.000305176	
5.49164	-0.167847	0.000152588	
5.4953	-0.167542	0.000457764	
5.49622	-0.168762	0.000152588	
5.49652	-0.168152	0.000762939	
5.50018	-0.167542	0.000152588	
5.50049	-0.168457	0.000915527	
5.50201	-0.168152	0.000305176	
5.50446	-0.167847	0.000457764	
5.50659	-0.168152	0.000457764	
5.50934	-0.167542	0.000457764	
5.51086	-0.167847	0.000457764	
5.51147	-0.167847	0.000152588	
5.51422	-0.165405	0.000152588	
5.51544	-0.163269	0.000305176	
5.51636	-0.163879	0.000457764	
5.5191	-0.162659	0.000305176	
5.52094	-0.163269	0.000305176	
5.52155	-0.163269	0.000152588	
5.52429	-0.162964	0.000610352	
5.52582	-0.162354	0.000457764	
5.52612	-0.163269	0.000457764	
5.52917	-0.163269	0.000305176	
5.53101	-0.163269	0.000610352	
5.53131	-0.162964	0.000457764	
5.53467	-0.163269	-0.000152588	
5.53528	-0.162964	0.000457764	
5.53589	-0.162659	0.000762939	
5.53894	-0.161133	0.000152588	
5.53986	-0.159302	0.000457764	
5.54077	-0.158081	0.000305176	
5.54443	-0.157776	0.000152588	
5.54535	-0.158386	0.000610352	
5.54535	-0.158081	0.000457764	
5.54871	-0.158081	0.000457764	
5.54993	-0.158386	0.000152588	
5.55084	-0.158386	0.000915527	
5.55359	-0.158081	0.000762939	
5.5542	-0.158691	0.000457764	
5.55573	-0.15564	0.000305176	
5.55817	-0.154419	0.000457764	
5.5603	-0.153503	0.000457764	
5.56091	-0.153503	0.000305176	
5.56366	-0.153198	0.000152588	
5.56488	-0.153503	0.000610352	
5.56549	-0.153503	0	
5.56824	-0.153809	0.000915527	
5.56946	-0.152893	0.000762939	
5.57037	-0.151062	0.000610352	
5.57343	-0.148926	0.000152588	
5.57495	-0.148926	0.000305176	
5.57556	-0.148926	0.000152588	
5.578	-0.148926	0.000305176	
5.57953	-0.14801	0	
5.58044	-0.148315	0.000457764	
5.58411	-0.146484	0.000305176	
5.5838	-0.144348	0.000457764	
5.58533	-0.143738	0.000762939	
5.58624	-0.143738	0	
5.58807	-0.144348	0.000762939	
5.58899	-0.143433	0.000762939	
5.59082	-0.143433	0.000610352	
5.59357	-0.141296	0.000305176	
5.59418	-0.139465	0.000457764	
5.5954	-0.139465	0.000457764	
5.59784	-0.13855	0	
5.59967	-0.139771	0.000762939	
5.6012	-0.13855	0.000152588	
5.60364	-0.136108	0.000152588	
5.60425	-0.134583	0.000152588	
5.60486	-0.133972	0.000457764	
5.60822	-0.133972	0.000305176	
5.60913	-0.134277	0.000457764	
5.61066	-0.131531	0.000610352	
5.61279	-0.1297	0.000457764	
5.61371	-0.129395	0.000305176	
5.61493	-0.129395	0.000915527	
5.61737	-0.1297	0.000457764	
5.6189	-0.126953	0.000305176	
5.62042	-0.125122	0.000152588	
5.62317	-0.124512	0	
5.62469	-0.123901	0.000152588	
5.62439	-0.124207	0.000457764	
5.625	-0.12146	0.000305176	
5.62805	-0.119934	0.000610352	
5.62927	-0.119019	-0.000152588	
5.62988	-0.118713	0.000762939	
5.63263	-0.117188	0.000610352	
5.63446	-0.115051	0.000457764	
5.63477	-0.115051	0.000457764	
5.63751	-0.114136	0.000457764	
5.63904	-0.111389	0.000305176	
5.63995	-0.109863	0.000305176	
5.6427	-0.110168	0.000305176	
5.64362	-0.109863	0.000305176	
5.64453	-0.106506	0.000152588	
5.64789	-0.10437	0.000457764	
5.6488	-0.10437	0.000305176	
5.64972	-0.102234	0.000457764	
5.64972	-0.0997925	0.000915527	
5.65277	-0.0997925	0.000610352	
5.65369	-0.0994873	0.000457764	
5.6546	-0.0982666	0.000610352	
5.65796	-0.0949097	0.000305176	
5.65918	-0.0942993	0.000457764	
5.6601	-0.0924683	0.000305176	
5.66223	-0.0900269	0.000457764	
5.66376	-0.0900269	0	
5.66406	-0.0875854	0.000152588	
5.66772	-0.085144	0.000305176	
5.66895	-0.085144	0.000610352	
5.66895	-0.0823975	0.000152588	
5.66986	-0.0799561	0.000457764	
5.67291	-0.0799561	0.000610352	
5.67352	-0.0772095	0.000305176	
5.67444	-0.0756836	0.000457764	
5.67719	-0.0750732	0.000610352	
5.67841	-0.0723267	0.000305176	
5.67963	-0.0701904	0.000457764	
5.68146	-0.0695801	0.000457764	
5.68268	-0.067749	0	
5.68359	-0.0650024	0.000152588	
5.6842	-0.0650024	0.000152588	
5.68756	-0.0634766	0.000305176	
5.68848	-0.0610352	0.000457764	
5.68939	-0.0613403	0	
5.69183	-0.0576782	0.000762939	
5.69305	-0.0561523	0.000457764	
5.69397	-0.0534058	0.000305176	
5.69611	-0.0506592	0.000305176	
5.69824	-0.0506592	0.000457764	
5.69824	-0.0476074	0.000457764	
5.69855	-0.0466919	0.000305176	
5.70221	-0.0427246	-0.000152588	
5.70282	-0.0408936	0.000305176	
5.70435	-0.0408936	0.000152588	
5.70648	-0.038147	0.000610352	
5.70801	-0.0363159	0.000305176	
5.70831	-0.0332642	0.000457764	
5.71167	-0.0314331	0.000610352	
5.71289	-0.0314331	0.000762939	
5.7135	-0.0286865	0.000610352	
5.71289	-0.0265503	0.000305176	
5.71625	-0.0234985	0.000152588	
5.71716	-0.0219727	0.000305176	
5.71899	-0.0183105	0.000152588	
5.72144	-0.0170898	0.000152588	
5.72296	-0.0158691	0.000305176	
5.72296	-0.0140381	0.000457764	
5.72449	-0.0119019	0.000305176	
5.72754	-0.00854492	0.000305176	
5.72754	-0.00671387	0.000610352	
5.72815	-0.00335693	0.000762939	
5.73181	-0.00213623	0.000305176	
5.73242	0.000915527	0.000610352	
5.73273	0.00244141	0	
5.73395	0.00335693	0.000762939	
5.73578	0.00579834	0.000457764	
5.73761	0.00732422	0.000457764	
5.73822	0.0106812	0.000305176	
5.74097	0.0131226	0.000152588	
5.7428	0.0152588	-0.000152588	
5.7428	0.0177002	0.000457764	
5.74402	0.0204468	0	
5.74615	0.022583	0.000457764	
5.74768	0.0253296	0	
5.74829	0.027771	0.000610352	
5.75073	0.0305176	0.000610352	
5.75256	0.0326538	0.000457764	
5.75348	0.0354004	0.000915527	
5.75287	0.0378418	0.000610352	
5.75592	0.0405884	0.000457764	
5.75714	0.0418091	0.000457764	
5.75806	0.0448608	0.000305176	
5.7608	0.0469971	0.000610352	
5.76202	0.0500488	0	
5.76233	0.0521851	0.000915527	
5.76324	0.0527954	0.000152588	
5.76508	0.055542	0	
5.76721	0.0567627	0.000305176	
5.76843	0.0601196	0.000915527	
5.77026	0.0619507	0.000610352	
5.7724	0.0646973	0.000457764	
5.7724	0.0668335	0.000457764	
5.77301	0.0698853	0.000457764	
5.77576	0.0717163	0.000152588	
5.77728	0.0747681	0.000457764	
5.7782	0.0787354	0.000305176	
5.78033	0.0811768	0.000305176	
5.78125	0.0839233	0.000152588	
5.78186	0.0863647	0.000305176	
5.78247	0.0888062	0.000305176	
5.78522	0.0909424	0.000152588	
5.78644	0.0933838	0.000457764	
5.78735	0.09552	0.000457764	
5.78766	0.0979614	0.000152588	
5.79071	0.100708	0.000610352	
5.79132	0.103149	0.000610352	
5.79315	0.105591	0.000610352	
5.79468	0.107422	0.000305176	
5.79651	0.110168	0	
5.79742	0.11322	0.000152588	
5.79742	0.114441	0.000305176	
5.80109	0.117493	0.000152588	
5.80109	0.119934	0.000457764	
5.8017	0.12207	0.000305176	
5.80292	0.124817	0.000457764	
5.80536	0.128174	0.000610352	
5.80719	0.1297	0.000457764	
5.8075	0.133057	0.000457764	
5.80994	0.135498	0.000457764	
5.81238	0.137939	0.000457764	
5.81207	0.139465	0.000610352	
5.81207	0.142517	0.000152588	
5.81543	0.145264	0.000305176	
5.81604	0.147095	0	
5.81665	0.150146	0.000610352	
5.81787	0.152588	0.000305176	
5.82001	0.154419	0.000457764	
5.82184	0.156555	0.000762939	
5.82153	0.158691	0.000610352	
5.82245	0.161743	0.000915527	
5.82489	0.164185	0.000305176	
5.82672	0.166931	0.000457764	
5.82733	0.169067	0.000152588	
5.83008	0.171814	0	
5.83099	0.173645	0.000610352	
5.8313	0.176392	0.000305176	
5.83221	0.178528	0.000305176	
5.83496	0.181885	0.000152588	
5.83557	0.183411	0.000305176	
5.83649	0.186462	0.000305176	
5.8374	0.187683	0.000152588	
5.84015	0.191956	0.000610352	
5.84137	0.193787	0.000762939	
5.84167	0.195313	0.000305176	
5.84198	0.198059	0.000457764	
5.84503	0.201111	0.000610352	
5.84595	0.203247	0.000152588	
5.84656	0.206909	0.000152588	
5.84717	0.208435	0	
5.84961	0.210876	0.000305176	
5.85052	0.213013	0.000152588	
5.85144	0.215759	0.000457764	
5.85144	0.218506	0.000305176	
5.8548	0.220947	0.000305176	
5.85541	0.223083	0.000915527	
5.85724	0.223083	0.000610352	
5.85693	0.226135	0.000457764	
5.85968	0.227661	0.000305176	
5.86029	0.231018	0.000152588	
5.8609	0.233459	0.000457764	
5.86426	0.235596	0.000305176	
5.86578	0.237427	0.000152588	
5.86578	0.239563	0.000152588	
5.86639	0.24292	0	
5.86914	0.245972	0.000762939	
5.87036	0.247498	0.000152588	
5.87067	0.247498	0.000305176	
5.87128	0.250244	0.000762939	
5.87341	0.252075	0.000610352	
5.87555	0.255432	0.000457764	
5.87616	0.256958	0.000152588	
5.87646	0.259705	0.000457764	
5.87952	0.261841	0.000457764	
5.88043	0.265198	0.000305176	
5.88074	0.267334	0.000457764	
5.88074	0.267639	0.000152588	
5.8844	0.270386	0.000152588	
5.88623	0.271912	0.000457764	
5.88531	0.274963	0.000152588	
5.88562	0.276794	0.000152588	
5.88898	0.276794	0.000457764	
5.8902	0.280151	0.000610352	
5.8905	0.281677	0.000457764	
5.8905	0.284729	0.000152588	
5.89142	0.286255	0.000610352	
5.89417	0.28717	0.000457764	
5.89539	0.290222	0.000305176	
5.89539	0.291443	0.000457764	
5.89661	0.294189	-0.000152588	
5.89813	0.296936	0	
5.89996	0.296326	0.000305176	
5.90027	0.299377	0.000457764	
5.90118	0.302124	0.000457764	
5.90363	0.301819	0.000305176	
5.90485	0.304565	0.000457764	
5.90485	0.307007	0.000610352	
5.90576	0.309448	0.000610352	
5.90881	0.31189	0.000610352	
5.91034	0.31189	0.000610352	
5.91034	0.314026	0.000457764	
5.91064	0.315857	0.000305176	
5.91339	0.316772	0.000152588	
5.91492	0.318909	0.000305176	
5.91553	0.32074	0	
5.91614	0.321655	0.000610352	
5.91858	0.323486	0.000305176	
5.9201	0.325317	0.000305176	
5.9201	0.326233	0.000305176	
5.92041	0.328979	0.000915527	
5.92377	0.331116	0.000762939	
5.9259	0.330811	0.000762939	
5.92529	0.333862	-0.000152588	
5.92529	0.336304	0.000457764	
5.9259	0.335999	0.000305176	
5.92865	0.33905	0.000457764	
5.92987	0.340576	0.000457764	
5.92957	0.341492	0.000152588	
5.93079	0.343323	0	
5.93292	0.345459	0.000457764	
5.93506	0.345459	0.000457764	
5.93506	0.346069	0	
5.93628	0.348511	0.000610352	
5.93781	0.350647	0.000457764	
5.93903	0.350647	0.000152588	
5.94055	0.353394	0.000457764	
5.93964	0.354919	0.000610352	
5.94025	0.35553	0.000305176	
5.9433	0.355835	0.000610352	
5.94391	0.358276	0.000305176	
5.94513	0.359802	0.000152588	
5.94574	0.361328	0.000152588	
5.94757	0.360107	0.000457764	
5.94971	0.363159	0.000610352	
5.95001	0.365601	0.000457764	
5.95062	0.366211	0.000762939	
5.95367	0.365601	0.000762939	
5.95428	0.368042	0.000305176	
5.9549	0.370789	0.000457764	
5.95428	0.370178	0.000610352	
5.9552	0.370178	0.000305176	
5.95825	0.37262	0.000152588	
5.95947	0.374451	0	
5.95947	0.374756	0.000152588	
5.96069	0.374451	0.000152588	
5.96344	0.375671	0.000610352	
5.96466	0.378418	0.000457764	
5.96497	0.379639	0.000305176	
5.96436	0.380859	0.000457764	
5.96497	0.381165	0.000762939	
5.96771	0.380249	0.000762939	
5.96954	0.382385	0.000457764	
5.96985	0.384216	0.000457764	
5.97046	0.384827	0.000457764	
5.9726	0.385132	0	
5.97412	0.385742	0.000305176	
5.97473	0.388794	0.000152588	
5.97473	0.389404	0.000305176	
5.97534	0.389709	0.000457764	
5.97778	0.39032	0.000305176	
5.979	0.39032	0.000610352	
5.97992	0.390015	0.000610352	
5.98022	0.392456	0.000762939	
5.98328	0.393677	0.000305176	
5.9848	0.394897	0	
5.9845	0.394592	0.000915527	
5.98419	0.394592	0.000610352	
5.9848	0.394897	0.000305176	
5.98816	0.394287	0.000610352	
5.98938	0.397034	0	
5.98907	0.39917	0.000152588	
5.98999	0.39917	0.000457764	
5.99274	0.39978	0.000305176	
5.99365	0.39978	0.000457764	
5.99457	0.39978	0.000305176	
5.99426	0.399475	0.000762939	
5.99548	0.400085	0.000762939	
5.99823	0.402222	0.000610352	
5.99945	0.404358	0.000152588	
5.99976	0.404968	0.000305176	
6.00006	0.405273	0.000457764	
6.00281	0.404968	0.000152588	
6.00403	0.405273	0.000152588	
6.00403	0.404358	0.000152588	
6.00372	0.404968	-0.000152588	
6.00555	0.405579	0.000457764	
6.00739	0.407104	0.000762939	
6.00891	0.409241	0.000305176	
6.00922	0.409851	0.000457764	
6.00952	0.409851	0.000457764	
6.00922	0.410461	0.000457764	
6.01196	0.409851	0.000457764	
6.01379	0.409851	0.000305176	
6.0144	0.409546	0.000152588	
6.0144	0.409851	-0.000152588	
6.01471	0.40863	0.000610352	
6.01807	0.409546	0.000305176	
6.01807	0.409241	0	
6.01898	0.410156	0.000305176	
6.01929	0.408936	0	
6.02203	0.412292	0.000305176	
6.02386	0.414429	0.000305176	
6.02295	0.414734	0.000457764	
6.02356	0.415039	0.000305176	
6.02386	0.413818	0	
6.02661	0.414734	0.000762939	
6.02875	0.414429	0.000305176	
6.02905	0.414734	0.000305176	
6.02875	0.414124	0.000610352	
6.02905	0.414429	0	
6.0321	0.414734	0	
6.03302	0.414124	0.000152588	
6.03333	0.414124	0.000152588	
6.03333	0.414734	0.000305176	
6.03424	0.415344	0.000457764	
6.03729	0.415344	0.000915527	
6.03821	0.414429	0.000915527	
6.03851	0.414734	0.000610352	
6.03851	0.414734	0.000305176	
6.03912	0.414124	0.000610352	
6.04187	0.414429	0.000610352	
6.04309	0.415039	0.000305176	
6.0437	0.414734	0	
6.04401	0.414734	0.000152588	
6.04706	0.413818	0.000305176	
6.04828	0.414734	0.000762939	
6.04828	0.414429	0.000610352	
6.04858	0.414429	0.000457764	
6.0498	0.414124	0.000457764	
6.05225	0.414734	0.000915527	
6.05347	0.414124	0.000457764	
6.05377	0.415039	0.000610352	
6.05377	0.414734	0	
6.05408	0.414429	0.000305176	
6.05682	0.413818	0.000152588	
6.05865	0.414429	0.000610352	
6.05835	0.415039	0.000457764	
6.05957	0.414429	0.000305176	
6.05865	0.414429	0.000610352	
6.06171	0.414429	0.000457764	
6.06323	0.414429	0.000305176	
6.06323	0.414429	0.000457764	
6.06323	0.414429	0.000305176	
6.06415	0.414124	0.000762939	
6.06689	0.414429	0.000152588	
6.06781	0.414429	0.000457764	
6.06842	0.415344	0.000457764	
6.06812	0.412292	0.000762939	
6.06903	0.409851	0.000305176	
6.07147	0.409546	0	
6.073	0.409546	0	
6.07391	0.408936	0.000152588	
6.0733	0.409546	0.000152588	
6.07422	0.410156	0.000305176	
6.07635	0.409851	0	
6.07758	0.409241	0.000762939	
6.07788	0.409546	0.000457764	
6.07849	0.408936	0.000457764	
6.0788	0.409546	0.000762939	
6.08185	0.409546	0.000305176	
6.08276	0.409241	0.000152588	
6.08307	0.407104	0.000152588	
6.08307	0.404053	0.000152588	
6.08276	0.404053	0.000152588	
6.08398	0.404358	-0.000152588	
6.08643	0.404968	0.000457764	
6.08734	0.404358	0.000457764	
6.08765	0.404968	0	
6.08887	0.404358	0.000305176	
6.08887	0.404968	0.000610352	
6.09161	0.404053	0.000457764	
6.09253	0.404053	0.000305176	
6.09314	0.402222	0.000305176	
6.09314	0.400085	0.000762939	
6.09344	0.39917	0.000305176	
6.0965	0.39978	0.000762939	
6.09802	0.399475	0.000305176	
6.09741	0.39978	0	
6.09772	0.400085	0.000457764	
6.09772	0.400085	0.000457764	
6.10168	0.397034	0.000610352	
6.10199	0.395508	0.000457764	
6.10291	0.394287	0.000457764	
6.10291	0.394592	0.000457764	
6.10352	0.394592	0.000457764	
6.10626	0.394897	0.000762939	
6.10748	0.394592	0.000457764	
6.10809	0.395508	0.000610352	
6.10779	0.392761	0.000305176	
6.1084	0.39032	0	
6.10779	0.39032	-0.000305176	
6.11115	0.390015	0.000152588	
6.11206	0.390625	0.000305176	
6.11359	0.390015	0.000457764	
6.11328	0.389709	0.000305176	
6.11237	0.387268	0.000610352	
6.11603	0.385742	0.000457764	
6.11816	0.385742	0.000762939	
6.11755	0.385742	0.000305176	
6.11816	0.385132	0.000305176	
6.11877	0.385437	0	
6.12122	0.382996	0.000305176	
6.12183	0.381165	0.000305176	
6.12244	0.379639	0.000305176	
6.12305	0.380859	0	
6.12305	0.380554	0.000457764	
6.12305	0.379333	0.000610352	
6.12579	0.377502	0.000305176	
6.12732	0.375671	0.000305176	
6.12762	0.375671	0.000610352	
6.12793	0.375671	0.000610352	
6.12823	0.374756	0.000457764	
6.13129	0.374756	0.000457764	
6.13281	0.373535	0.000457764	
6.13251	0.371094	0	
6.13312	0.370178	0.000915527	
6.13281	0.370483	0.000152588	
6.13617	0.370178	0.000457764	
6.13739	0.367737	0.000305176	
6.13708	0.366516	0.000457764	
6.13708	0.364685	0.000152588	
6.13739	0.365295	0.000457764	
6.138	0.365601	0.000610352	
6.14136	0.365601	0.000457764	
6.14227	0.363159	0.000305176	
6.14258	0.361633	0.000305176	
6.14288	0.361328	0.000610352	
6.14319	0.360413	0.000610352	
6.14594	0.360718	0.000305176	
6.14685	0.358276	0.000305176	
6.14716	0.356445	0	
6.14746	0.355835	0.000305176	
6.14777	0.35553	0.000152588	
6.14838	0.355835	0.000305176	
6.15021	0.353394	0.000152588	
6.15234	0.351563	0.000610352	
6.15173	0.350342	0.000457764	
6.15265	0.350342	0.000457764	
6.15265	0.350037	0.000457764	
6.1554	0.348206	0	
6.15753	0.346375	0.000305176	
6.15723	0.345764	0.000457764	
6.15723	0.345459	0.000305176	
6.15784	0.343628	0.000305176	
6.15814	0.341492	0.000305176	
6.16058	0.340881	0.000457764	
6.16241	0.341797	0.000305176	
6.16241	0.341187	0.000305176	
6.16119	0.33844	0.000610352	
6.16302	0.337219	0.000762939	
6.16547	0.336304	0.000610352	
6.16669	0.335693	0.000762939	
6.16699	0.335999	0.000457764	
6.16699	0.333862	0.000762939	
6.16699	0.331421	0	
6.1676	0.331116	0.000610352	
6.17004	0.331421	0.000305176	
6.17126	0.328674	0.000457764	
6.17218	0.326538	0.000305176	
6.17096	0.326233	0.000457764	
6.17218	0.326233	0.000305176	
6.17249	0.326233	0.000457764	
6.17523	0.324097	0.000610352	
6.17706	0.32196	0.000610352	
6.17737	0.321655	0.000305176	
6.17706	0.319214	0.000457764	
6.17676	0.316772	0.000610352	
6.1795	0.315552	0.000305176	
6.18073	0.316467	0.000457764	
6.18164	0.313721	0.000152588	
6.18103	0.312195	-0.000305176	
6.18164	0.311584	0.000152588	
6.18256	0.3125	0.000305176	
6.18591	0.311279	0.000305176	
6.18591	0.309753	0	
6.18713	0.307617	0.000457764	
6.18683	0.306702	0.000762939	
6.18683	0.307007	0.000610352	
6.18713	0.305176	0.000457764	
6.18927	0.302734	0.000457764	
6.1911	0.301819	0.000152588	
6.19141	0.302124	0.000305176	
6.19141	0.299683	0.000457764	
6.19232	0.297852	0.000305176	
6.19476	0.296631	0.000305176	
6.19659	0.297546	0.000762939	
6.1969	0.296631	0.000457764	
6.1972	0.2948	0.000457764	
6.19629	0.292358	0.000457764	
6.19751	0.292358	0.000457764	
6.19965	0.291748	0.000762939	
6.20148	0.289001	0.000305176	
6.20209	0.28717	0.000457764	
6.20117	0.286865	0.000457764	
6.20117	0.287476	0.000305176	
6.20117	0.285339	0.000457764	
6.20483	0.283203	0.000305176	
6.20667	0.281982	0.000457764	
6.20636	0.282593	0.000152588	
6.20605	0.281982	0.000610352	
6.20667	0.279846	-0.000152588	
6.20728	0.27771	0.000305176	
6.20941	0.27771	0.000305176	
6.21124	0.276794	0.000762939	
6.21094	0.274658	0.000152588	
6.21155	0.272522	0.000762939	
6.21124	0.271606	0.000762939	
6.21185	0.272522	0.000457764	
6.21552	0.271912	0.000762939	
6.21613	0.269775	0.000152588	
6.21613	0.26825	0.000305176	
6.21582	0.266724	0.000305176	
6.21674	0.266724	0.000610352	
6.21948	0.264893	0.000305176	
6.22101	0.263062	0.000152588	
6.22162	0.262756	0.000762939	
6.22101	0.262146	0.000305176	
6.2207	0.26062	0.000457764	
6.22192	0.258179	0.000305176	
6.22467	0.257874	0.000457764	
6.22559	0.258179	0.000610352	
6.2265	0.256958	0.000152588	
6.2265	0.255127	0.000152588	
6.2262	0.252991	0.000305176	
6.22742	0.25238	0.000152588	
6.22986	0.252686	0.000457764	
6.23138	0.249939	0.000457764	
6.23077	0.249023	0.000305176	
6.23138	0.247803	0.000152588	
6.23108	0.247803	0.000305176	
6.23138	0.246582	0.000457764	
6.23474	0.245056	0.000152588	
6.23566	0.24353	0.000457764	
6.23627	0.243225	0.000610352	
6.23535	0.242004	-0.000152588	
6.23657	0.243225	0.000762939	
6.23688	0.241089	0.000610352	
6.23932	0.238647	0	
6.24084	0.237427	0.000305176	
6.24207	0.237732	0.000152588	
6.24084	0.235901	0.000457764	
6.24146	0.233459	0.000305176	
6.24176	0.233459	0.000457764	
6.2442	0.233459	0.000457764	
6.24542	0.233459	0.000457764	
6.24573	0.231934	0.000610352	
6.24573	0.228271	0.000610352	
6.24573	0.227966	0.000457764	
6.24634	0.228882	0.000457764	
6.24969	0.228577	0.000305176	
6.25092	0.22644	-0.000152588	
6.25122	0.223389	0.000152588	
6.25153	0.223083	0.000305176	
6.25092	0.223083	0.000305176	
6.25153	0.223999	0.000305176	
6.25488	0.221558	0.000762939	
6.25519	0.218811	0.000457764	
6.2561	0.218506	0.000610352	
6.2558	0.218506	0.000457764	
6.2558	0.218506	0.000305176	
6.2561	0.216064	0.000610352	
6.2561	0.213928	0.000457764	
6.25854	0.213013	0.000152588	
6.26038	0.213623	0.000305176	
6.26068	0.213013	0.000152588	
6.26007	0.210876	0.000762939	
6.26068	0.20874	0.000457764	
6.2616	0.209045	0.000457764	
6.26404	0.209045	0.000457764	
6.26465	0.208435	0.000762939	
6.26556	0.205994	0.000457764	
6.26587	0.204773	0.000457764	
6.26556	0.203247	0.000610352	
6.26587	0.203247	0.000457764	
6.26892	0.203247	0.000152588	
6.26984	0.203857	0.000762939	
6.27075	0.2005	0	
6.27045	0.199585	0.000457764	
6.27106	0.198975	0.000457764	
6.27106	0.198669	0.000305176	
6.27411	0.198364	0.000305176	
6.27533	0.196533	-0.000152588	
6.27563	0.194092	0.000610352	
6.27502	0.194397	0.000305176	
6.27533	0.193787	0.000152588	
6.27594	0.194092	0.000762939	
6.27655	0.193787	0.000457764	
6.2793	0.192566	0.000457764	
6.28021	0.189514	0.000610352	
6.28082	0.188904	0.000305176	
6.28052	0.188599	0.000305176	
6.28052	0.188599	0.000305176	
6.28113	0.188599	0.000305176	
6.28387	0.186157	0.000305176	
6.2854	0.184326	0	
6.28601	0.183716	0.000457764	
6.2851	0.184326	0.000457764	
6.28571	0.184021	0.000915527	
6.28632	0.18219	0.000610352	
6.28906	0.180054	0.000305176	
6.29059	0.179443	0.000762939	
6.29059	0.178528	0.000610352	
6.29059	0.178833	0.000305176	
6.29059	0.178528	0.000305176	
6.29028	0.178833	0.000457764	
6.2912	0.176086	0.000610352	
6.29425	0.174561	0.000457764	
6.29456	0.174255	0.000457764	
6.29486	0.17395	0.000305176	
6.29547	0.174255	0.000762939	
6.29486	0.17395	0.000915527	
6.29639	0.171814	0.000305176	
6.29913	0.169373	0.000457764	
6.30005	0.169373	0.000457764	
6.30066	0.169067	0.000152588	
6.30066	0.169373	0.000762939	
6.29974	0.169373	0.000305176	
6.30035	0.166931	0.000305176	
6.30066	0.164795	0.000152588	
6.30402	0.16449	0.000457764	
6.30554	0.16449	0.000610352	
6.30554	0.163879	0.000305176	
6.30554	0.164185	0.000457764	
6.30524	0.163574	0.000610352	
6.30585	0.162354	0.000152588	
6.30859	0.160217	0.000152588	
6.30981	0.159302	0.000610352	
6.30981	0.158997	0.000152588	
6.31042	0.159302	0.000610352	
6.31042	0.159912	0.000152588	
6.31012	0.159302	0.000457764	
6.31134	0.15686	0.000152588	
6.31348	0.15564	0.000610352	
6.3147	0.154724	0.000305176	
6.31561	0.154724	0	
6.31439	0.155029	0.000457764	
6.31531	0.155029	0.000610352	
6.31561	0.155029	0.000457764	
6.31897	0.152893	0.000152588	
6.31989	0.150757	0.000305176	
6.31958	0.149536	0.000305176	
6.31989	0.149841	0.000152588	
6.31989	0.149841	0.000457764	
6.32019	0.149536	0	
6.32019	0.149841	0	
6.32324	0.1474	0.000457764	
6.32416	0.145264	0.000457764	
6.32477	0.145264	0.000457764	
6.32538	0.144958	0.000305176	
6.32416	0.144958	0.000457764	
6.32477	0.144958	0.000762939	
6.32507	0.145874	0.000305176	
6.32751	0.142517	0.000457764	
6.32965	0.140991	0.000457764	
6.32965	0.140076	0.000152588	
6.32965	0.140381	0.000457764	
6.32996	0.140686	0.000305176	
6.32996	0.139771	0.000762939	
6.3327	0.139771	0.000457764	
6.33362	0.140076	0.000457764	
6.33423	0.137939	0.000457764	
6.33392	0.135803	0.000305176	
6.33484	0.135193	0.000457764	
6.33453	0.135193	0.000457764	
6.33545	0.135803	0.000305176	
6.33728	0.135498	0.000610352	
6.33942	0.134888	0.000457764	
6.33942	0.135193	0.000610352	
6.33911	0.133057	0.000305176	
6.33972	0.13031	0	
6.33881	0.13031	0	
6.34064	0.130005	0.000152588	
6.34186	0.1297	0.000457764	
6.34399	0.13031	0.000152588	
6.3443	0.13031	0.000152588	
6.3443	0.13031	0.000457764	
6.34399	0.128174	0.000305176	
6.34369	0.125732	0.000762939	
6.3443	0.125427	0.000457764	
6.34766	0.125427	0.000762939	
6.34857	0.125732	0.000610352	
6.34918	0.125122	0.000305176	
6.3501	0.125427	0.000152588	
6.34949	0.124817	0.000152588	
6.34949	0.122986	0	
6.3504	0.121155	0.000610352	
6.35284	0.120239	0.000457764	
6.35376	0.12085	0.000152588	
6.35437	0.120239	0.000457764	
6.35437	0.120239	0.000762939	
6.35437	0.120239	0.000915527	
6.35437	0.120544	0.000457764	
6.35468	0.118408	0.000457764	
6.35742	0.115967	0.000305176	
6.35864	0.115051	0.000457764	
6.35956	0.115662	0.000457764	
6.35895	0.115356	0.000305176	
6.35925	0.115356	0.000152588	
6.35895	0.115662	0.000457764	
6.35925	0.115967	0.000152588	
6.36292	0.113525	0.000305176	
6.36383	0.110779	0.000610352	
6.36414	0.110474	0.000762939	
6.36444	0.111084	0.000762939	
6.36383	0.110779	0.000152588	
6.36444	0.110474	0.000457764	
6.36444	0.111389	0.000305176	
6.36749	0.110474	0.000457764	
6.36902	0.110474	0.000457764	
6.36932	0.107422	0.000610352	
6.36963	0.106201	0.000152588	
6.36932	0.105591	0.000457764	
6.36902	0.105286	0	
6.36841	0.105591	0.000305176	
6.36963	0.106201	0.000305176	
6.37177	0.105896	0.000305176	
6.3739	0.105896	0.000305176	
6.3736	0.103455	0.000457764	
6.3739	0.101013	0.000457764	
6.37421	0.100403	0.000152588	
6.3736	0.101013	0.000457764	
6.37482	0.100403	0.000305176	
6.37787	0.101013	0.000305176	
6.37848	0.101013	0.000457764	
6.37848	0.100708	-0.000152588	
6.37878	0.101013	0.000762939	
6.37939	0.0985718	0.000305176	
6.37878	0.0964355	0.000305176	
6.38	0.09552	0.000457764	
6.38245	0.0958252	0.000457764	
6.38397	0.0961304	0.000762939	
6.38428	0.09552	0.000610352	
6.38367	0.09552	0.000610352	
6.38367	0.0964355	0.000457764	
6.38397	0.093689	0.000305176	
6.38428	0.0909424	0.000305176	
6.38397	0.0909424	0.000152588	
6.38733	0.0915527	0.000457764	
6.38885	0.0909424	0.000305176	
6.38824	0.0906372	0.000457764	
6.38916	0.0909424	0.000305176	
6.38916	0.090332	0.000305176	
6.38885	0.088501	0.000762939	
6.38916	0.0869751	0.000305176	
6.39221	0.0863647	0.000610352	
6.39343	0.0860596	0.000610352	
6.39465	0.0866699	0.000305176	
6.39343	0.0857544	0.000152588	
6.39435	0.0857544	0.000610352	
6.39374	0.0860596	0.000305176	
6.39374	0.0860596	0.000610352	
6.39374	0.0836182	0.000305176	
6.3974	0.0811768	0.000610352	
6.39832	0.0811768	0.000457764	
6.39893	0.0805664	0.000305176	
6.39832	0.0814819	0.000762939	
6.39954	0.0808716	0.000457764	
6.39862	0.0811768	0.000610352	
6.39893	0.0811768	0.000152588	
6.39923	0.0790405	0.000305176	
6.40198	0.0772095	0.000762939	
6.40411	0.0772095	0.000305176	
6.4035	0.0769043	0.000305176	
6.4035	0.0769043	0.000152588	
6.40381	0.0769043	-0.000152588	
6.40381	0.0775146	0.000610352	
6.40381	0.0772095	0.000305176	
6.40411	0.0747681	0.000457764	
6.40717	0.0717163	0.000457764	
6.40808	0.0723267	0.000457764	
6.40839	0.0723267	0.000915527	
6.40869	0.0717163	0.000610352	
6.40869	0.0717163	0.000457764	
6.40839	0.0720215	0.000305176	
6.409	0.0726318	0.000305176	
6.41205	0.0704956	0.000610352	
6.41296	0.0674438	0.000152588	
6.41388	0.0668335	0.000305176	
6.41266	0.0668335	0.000152588	
6.41357	0.0668335	0.000305176	
6.41388	0.0668335	0.000457764	
6.41327	0.0674438	0.000457764	
6.41418	0.0668335	0.000762939	
6.41693	0.0650024	0.000762939	
6.41876	0.0628662	0.000305176	
6.41876	0.0622559	0.000610352	
6.41937	0.0619507	0.000610352	
6.41846	0.062561	0.000457764	
6.41876	0.062561	0.000610352	
6.41815	0.0619507	0.000610352	
6.41846	0.062561	0.000305176	
6.41937	0.0598145	0	
6.42212	0.0585938	0.000457764	
6.42273	0.0570679	0.000610352	
6.42395	0.057373	0.000305176	
6.42334	0.0576782	0.000762939	
6.42303	0.0570679	0.000610352	
6.42303	0.057373	0.000762939	
6.42334	0.057373	0.000305176	
6.42365	0.0546265	0.000457764	
6.42731	0.0537109	0.000762939	
6.42792	0.0524902	0.000457764	
6.42822	0.0531006	0.000457764	
6.42822	0.0521851	0.000305176	
6.42853	0.0524902	0.000152588	
6.42822	0.0524902	0.000610352	
6.42822	0.0521851	0.000457764	
6.42883	0.0500488	0.000305176	
6.43127	0.0479126	0.000152588	
6.43341	0.0473022	0.000610352	
6.43341	0.0476074	0.000610352	
6.43372	0.0476074	0.000457764	
6.43341	0.0482178	0.000762939	
6.43372	0.0473022	0.000762939	
6.43341	0.0476074	0.000457764	
6.43372	0.0454712	0.000610352	
6.43372	0.0427246	0.000305176	
6.43677	0.0430298	0.000152588	
6.43829	0.0421143	0.000457764	
6.43738	0.0421143	0.000305176	
6.43799	0.0424194	0.000305176	
6.4386	0.0427246	0.000305176	
6.43799	0.0405884	0.000610352	
6.43799	0.0384521	0.000762939	
6.4389	0.0384521	0.000457764	
6.44165	0.0378418	0.000915527	
6.44287	0.038147	0.000152588	
6.44226	0.0378418	0.000457764	
6.44318	0.0369263	0.000457764	
6.44287	0.0378418	0.000457764	
6.44318	0.03479	0.000152588	
6.44287	0.0332642	0.000305176	
6.44318	0.0332642	0.000457764	
6.44318	0.0332642	0.000457764	
6.44623	0.0323486	0.000152588	
6.44775	0.032959	0.000457764	
6.44836	0.0326538	0.000610352	
6.44684	0.032959	0.000610352	
6.44806	0.0302124	0.000457764	
6.44775	0.0289917	0.000305176	
6.44775	0.027771	0.000305176	
6.44806	0.0274658	0.000305176	
6.44897	0.027771	0.000457764	
6.45111	0.027771	0.000305176	
6.45203	0.0280762	0.000152588	
6.45264	0.0271606	0.000762939	
6.45294	0.0256348	0	
6.45264	0.0234985	0.000305176	
6.45264	0.0228882	0.000457764	
6.45294	0.022583	0.000610352	
6.45264	0.022583	0.000762939	
6.45355	0.0231934	0.000610352	
6.45599	0.0228882	0.000610352	
6.45691	0.022583	0.000457764	
6.45813	0.0210571	-0.000152588	
6.45782	0.0186157	0.000915527	
6.45782	0.0183105	0.000152588	
6.45813	0.0177002	0.000457764	
6.45782	0.0183105	0.000305176	
6.45752	0.0177002	0.000305176	
6.45813	0.0180054	0.000152588	
6.46179	0.0164795	0.000610352	
6.46301	0.0137329	0.000457764	
6.4624	0.0131226	0.000457764	
6.4621	0.0134277	0.000305176	
6.46301	0.0134277	0.000762939	
6.46271	0.0128174	0.000762939	
6.46301	0.0128174	0.000762939	
6.46301	0.0131226	0.000305176	
6.46332	0.0100708	0.000305176	
6.46667	0.00793457	0	
6.46698	0.00762939	0.000610352	
6.46759	0.00823975	0.000305176	
6.4682	0.00793457	0.000152588	
6.46759	0.00823975	0.000152588	
6.46729	0.00793457	0.000457764	
6.4679	0.00793457	0.000457764	
6.46759	0.00549316	0.000457764	
6.46667	0.00274658	0.000610352	
6.4682	0.00305176	0.000762939	
6.47064	0.00305176	0.000457764	
6.47186	0.00335693	0.000305176	
6.47308	0.00305176	0.000457764	
6.47247	0.00335693	0.000305176	
6.47308	0.00305176	0.000152588	
6.47308	0.000610352	0.000610352	
6.47247	-0.000610352	0.000305176	
6.47278	-0.0012207	0.000305176	
6.47278	-0.000915527	0.000152588	
6.47339	-0.0012207	0.000610352	
6.47552	-0.00183105	0.000762939	
6.47705	-0.00183105	0.000457764	
6.47705	-0.000915527	0.000610352	
6.47736	-0.00396729	0.000305176	
6.47736	-0.00579834	0.000457764	
6.47736	-0.00671387	0.000610352	
6.47797	-0.00640869	0	
6.47705	-0.00701904	0.000152588	
6.47705	-0.00701904	0.000305176	
6.47797	-0.00732422	0.000305176	
6.48132	-0.00640869	0.000457764	
6.48254	-0.0088501	0.000457764	
6.48193	-0.0106812	0.000152588	
6.48254	-0.0112915	0.000457764	
6.48285	-0.0115967	0.000152588	
6.48254	-0.0112915	0.000457764	
6.48285	-0.0115967	0.000457764	
6.48285	-0.0119019	0.000305176	
6.48315	-0.0137329	0.000305176	
6.48285	-0.015564	0.000152588	
6.4859	-0.0158691	0	
6.48712	-0.0158691	0.000305176	
6.48712	-0.0164795	0.000305176	
6.48743	-0.0167847	0.000305176	
6.48743	-0.0164795	0.000152588	
6.48743	-0.0161743	0.000915527	
6.48743	-0.0183105	0.000305176	
6.48743	-0.0201416	0.000457764	
6.48682	-0.020752	0.000457764	
6.48773	-0.0210571	0.000305176	
6.49078	-0.020752	0.000305176	
6.49292	-0.0210571	0.000305176	
6.49261	-0.0216675	0.000457764	
6.492	-0.0213623	0.000152588	
6.492	-0.0231934	0.000305176	
6.49261	-0.0250244	0.000762939	
6.49231	-0.0262451	0.000152588	
6.49261	-0.0262451	0.000457764	
6.49261	-0.0265503	0.000305176	
6.49231	-0.0259399	0.000305176	
6.49261	-0.0259399	0.000762939	
6.49597	-0.0259399	0.000610352	
6.49658	-0.0286865	0.000305176	
6.49689	-0.0305176	0.000305176	
6.4978	-0.0311279	0	
6.49689	-0.0314331	0.000915527	
6.49689	-0.0311279	0	
6.4975	-0.0308228	0.000305176	
6.4975	-0.0314331	0.000152588	
6.4975	-0.0332642	0.000457764	
6.49719	-0.0354004	0.000457764	
6.4975	-0.0357056	0.000152588	
6.50024	-0.0357056	0.000457764	
6.50177	-0.0357056	0.000457764	
6.50146	-0.0354004	0	
6.50208	-0.0357056	0.000762939	
6.50208	-0.0357056	0.000457764	
6.50238	-0.038147	0.000305176	
6.50238	-0.039978	0.000305176	
6.50177	-0.0405884	0.000305176	
6.50208	-0.0405884	0	
6.50208	-0.0402832	0.000152588	
6.50269	-0.0402832	0.000457764	
6.50574	-0.0408936	0.000305176	
6.50696	-0.0402832	0.000152588	
6.50696	-0.0430298	0.000762939	
6.50757	-0.0445557	0.000457764	
6.50726	-0.0457764	0.000457764	
6.50787	-0.0457764	0.000457764	
6.50665	-0.0454712	0.000457764	
6.50665	-0.0457764	0.000305176	
6.50696	-0.0454712	0.000152588	
6.50665	-0.0485229	0.000610352	
6.50787	-0.0500488	0	
6.51123	-0.0509644	0.000457764	
6.51184	-0.0500488	0.000305176	
6.51215	-0.0509644	0.000305176	
6.51184	-0.0509644	0.000305176	
6.51245	-0.0506592	0.000457764	
6.51215	-0.0500488	0.000152588	
6.51245	-0.0524902	0.000915527	
6.51215	-0.0546265	0.000305176	
6.51215	-0.0549316	0.000152588	
6.51245	-0.0558472	0.000610352	
6.51123	-0.055542	0.000152588	
6.51245	-0.0549316	0.000610352	
6.5155	-0.0552368	0.000152588	
6.51672	-0.0552368	0.000152588	
6.51703	-0.0576782	0.000152588	
6.51672	-0.0592041	0.000305176	
6.51672	-0.0604248	0.000152588	
6.51672	-0.0604248	0.000152588	
6.51733	-0.0601196	0.000610352	
6.51672	-0.0601196	0.000610352	
6.51703	-0.06073	0.000152588	
6.51642	-0.0604248	0.000915527	
6.51703	-0.062561	0.000457764	
6.51764	-0.0650024	0.000305176	
6.51733	-0.0646973	0.000152588	
6.52039	-0.0650024	0.000152588	
6.52191	-0.0653076	0.000457764	
6.52222	-0.0653076	0.000152588	
6.52161	-0.0653076	0.000152588	
6.52252	-0.0656128	0.000305176	
6.52191	-0.0653076	0	
6.52161	-0.0671387	0.000457764	
6.52222	-0.0698853	0.000457764	
6.52161	-0.0698853	0.000457764	
6.52191	-0.0698853	0.000762939	
6.52222	-0.0704956	0.000305176	
6.52252	-0.0698853	0.000457764	
6.52557	-0.0704956	0.000610352	
6.52618	-0.0695801	0.000152588	
6.52679	-0.0698853	0.000457764	
6.5271	-0.0726318	0	
6.5274	-0.0741577	0.000762939	
6.52618	-0.0750732	0.000152588	
6.5271	-0.0747681	0.000152588	
6.5271	-0.0750732	0.000152588	
6.52679	-0.0747681	0.000457764	
6.52649	-0.0756836	0.000762939	
6.52679	-0.0747681	0.000762939	
6.52649	-0.0750732	0.000305176	
6.52679	-0.078125	0.000457764	
6.52985	-0.0802612	0.000152588	
6.53137	-0.0793457	0.000457764	
6.53198	-0.0793457	0.000305176	
6.53168	-0.0799561	0.000305176	
6.53168	-0.0796509	0.000305176	
6.53168	-0.0793457	0.000610352	
6.53229	-0.0799561	0.000457764	
6.53168	-0.0799561	0.000457764	
6.53168	-0.0823975	0.000762939	
6.53168	-0.0848389	0.000457764	
6.53168	-0.085144	0.000152588	
6.53137	-0.0854492	0.000305176	
6.53168	-0.0848389	0.000762939	
6.53229	-0.0848389	0.000305176	
6.53503	-0.0848389	0.000305176	
6.53625	-0.085144	0.000305176	
6.53687	-0.0848389	0.000152588	
6.53625	-0.0848389	0.000457764	
6.53717	-0.0869751	0.000610352	
6.53687	-0.0891113	0.000152588	
6.53687	-0.0894165	0	
6.53687	-0.0891113	0.000610352	
6.53625	-0.0894165	0.000457764	
6.53687	-0.0894165	0.000305176	
6.53748	-0.0897217	0.000457764	
6.53717	-0.0891113	0.000152588	
6.53687	-0.0891113	0.000762939	
6.53778	-0.0891113	0.000457764	
6.54022	-0.0897217	0.000762939	
6.54144	-0.0921631	0.000152588	
6.54175	-0.093689	0.000152588	
6.54175	-0.0946045	0.000610352	
6.54175	-0.0949097	0.000152588	
6.54205	-0.0942993	0.000152588	
6.54144	-0.0939941	0.000305176	
6.54083	-0.0942993	0.000457764	
6.54175	-0.0949097	0.000457764	
6.54175	-0.0942993	0.000610352	
6.54236	-0.0949097	0.000610352	
6.54205	-0.0942993	0.000305176	
6.54205	-0.0970459	0.000152588	
6.54114	-0.098877	0.000610352	
6.54236	-0.098877	0.000305176	
6.5451	-0.0997925	0.000305176	
6.54633	-0.0997925	-0.000152588	
6.54694	-0.0994873	0.000610352	
6.54633	-0.0994873	0.000305176	
6.54694	-0.100098	0.000305176	
6.54633	-0.0994873	0.000610352	
6.54694	-0.0994873	0.000457764	
6.54694	-0.0997925	0	
6.54694	-0.100403	0.000457764	
6.54724	-0.101318	0.000305176	
6.54694	-0.104675	0.000305176	
6.54633	-0.104675	0.000305176	
6.54663	-0.10437	0.000457764	
6.54633	-0.104675	0	
6.54785	-0.10437	0	
6.54999	-0.104675	0.000305176	
6.55182	-0.104675	0.000152588	
6.55182	-0.105286	0.000152588	
6.55151	-0.104675	0.000457764	
6.55212	-0.104675	0.000457764	
6.55182	-0.104675	0.000305176	
6.55182	-0.10437	0.000305176	
6.55151	-0.107117	0.000610352	
6.55151	-0.109253	0	
6.55212	-0.109863	0.000457764	
6.55243	-0.109558	0.000305176	
6.55182	-0.109253	0.000305176	
6.55151	-0.109253	0.000152588	
6.55151	-0.109253	0.00106812	
6.55182	-0.109558	0.000457764	
6.55212	-0.109558	0.000305176	
6.55457	-0.108948	0	
6.5564	-0.108948	0.000457764	
6.5567	-0.109253	0.000610352	
6.5567	-0.109253	0.000457764	
6.55701	-0.108948	0.000762939	
6.55701	-0.109558	0.000457764	
6.5564	-0.111694	0	
6.5567	-0.113831	0.000762939	
6.55701	-0.114136	0	
6.55609	-0.114136	0.000305176	
6.55701	-0.114441	0.000457764	
6.55609	-0.114136	0.000457764	
6.5564	-0.115051	0.000457764	
6.55701	-0.114441	0.000457764	
6.5567	-0.114136	0.000305176	
6.5567	-0.114136	0.000610352	
6.5564	-0.113831	0	
6.55701	-0.114441	0.000610352	
6.55975	-0.113831	0.000457764	
6.56097	-0.114746	0.000152588	
6.56158	-0.114136	0.000457764	
6.56158	-0.114441	0.000457764	
6.56128	-0.116577	0.000457764	
6.56036	-0.118713	0.000305176	
6.56097	-0.119019	0.000457764	
6.56128	-0.119934	0.000305176	
6.56219	-0.119324	-0.000152588	
6.56128	-0.118408	0.000457764	
6.56158	-0.119934	0.000457764	
6.56158	-0.119629	0.000457764	
6.56128	-0.119934	0.000305176	
6.56128	-0.119629	0.000457764	
6.56158	-0.119324	0.000610352	
6.56128	-0.119934	0.000152588	
6.56128	-0.118713	0.000152588	
6.5625	-0.118713	0	
6.56494	-0.119934	0.000152588	
6.56647	-0.118713	0.000457764	
6.56647	-0.119629	0.000152588	
6.56616	-0.119019	0.000305176	
6.56616	-0.12146	0.000305176	
6.56616	-0.123901	0.000610352	
6.56677	-0.124512	0.000610352	
6.56647	-0.124512	0.000610352	
6.56677	-0.123596	0.000457764	
6.56555	-0.124817	0.000457764	
6.56647	-0.124817	0.000152588	
6.56586	-0.124207	0.000610352	
6.56616	-0.123901	0.000457764	
6.56586	-0.124817	0.000305176	
6.56616	-0.123901	0.000610352	
6.56616	-0.124207	0	
6.56616	-0.123901	0.000152588	
6.56586	-0.124207	0.000305176	
6.56647	-0.124512	0.000457764	
6.56769	-0.123596	0.000610352	
6.57013	-0.123596	0.000457764	
6.57104	-0.124207	0.000762939	
6.57043	-0.124207	0.000457764	
6.57104	-0.124512	0.000457764	
6.57166	-0.126038	0.000610352	
6.57135	-0.128174	0.000457764	
6.57135	-0.129089	0.000152588	
6.57135	-0.129089	0.000152588	
6.57104	-0.129395	0.000610352	
6.57166	-0.128784	0.000305176	
6.57104	-0.128784	0	
6.57166	-0.129395	0.000610352	
6.57166	-0.129395	0.000457764	
6.57074	-0.129089	0.000457764	
6.57074	-0.129089	0.000152588	
6.57104	-0.128784	0.000305176	
6.57166	-0.128784	0.000152588	
6.57135	-0.129395	0.000305176	
6.57135	-0.129395	0.000610352	
6.57166	-0.129089	0.000305176	
6.57104	-0.128784	0	
6.57227	-0.129395	0.000457764	
6.57501	-0.128784	0.000305176	
6.57623	-0.129089	0	
6.57623	-0.129395	0.000457764	
6.57654	-0.129395	0.000152588	
6.57623	-0.129395	0.000610352	
6.57654	-0.129395	0.000762939	
6.57623	-0.13092	0.000457764	
6.57623	-0.133362	0.000305176	
6.57623	-0.133972	0.000305176	
6.57623	-0.133667	0.000610352	
6.57562	-0.134277	0.000152588	
6.57623	-0.133972	0.000152588	
6.57654	-0.133972	0.000305176	
6.57593	-0.134277	0.000305176	
6.57593	-0.134583	0.000457764	
6.57623	-0.134277	0	
6.57562	-0.133972	0.000457764	
6.57623	-0.133972	0.000762939	
6.57593	-0.134888	0.000305176	
6.57562	-0.133362	0.000457764	
6.57715	-0.134277	0.000457764	
6.57593	-0.133972	0.000457764	
6.57593	-0.134583	0.000610352	
6.57593	-0.134277	0.000152588	
6.57623	-0.133667	0.000305176	
6.57959	-0.134277	0.000152588	
6.58081	-0.133667	0.000152588	
6.58173	-0.133972	0.000305176	
6.58081	-0.133972	0.000152588	
6.58112	-0.133667	0.000457764	
6.58112	-0.133972	0.000610352	
6.58081	-0.133362	0.000457764	
6.58173	-0.133972	0.000305176	
6.58081	-0.133972	0.000152588	
6.58112	-0.133972	0.000305176	
6.58051	-0.134277	0	
6.58081	-0.133667	0.000152588	
6.58142	-0.133972	0	
6.58142	-0.136719	0.000305176	
6.58112	-0.13855	0.000457764	
6.58051	-0.13855	0.000152588	
6.58081	-0.138855	0.000457764	
6.58173	-0.138855	0.000457764	
6.58051	-0.138855	0.000457764	
6.58142	-0.13916	0.000610352	
6.58112	-0.139465	0.000457764	
6.58112	-0.138245	0.000457764	
6.58173	-0.13855	0.000152588	
6.58081	-0.13855	0.00106812	
6.58112	-0.138245	0.000305176	
6.58081	-0.138855	0.000457764	
6.58112	-0.140076	0	
6.58173	-0.13855	0.000305176	
6.58112	-0.13855	0.000457764	
6.58478	-0.137939	0.000305176	
6.586	-0.139771	0	
6.586	-0.13855	0.000762939	
6.5863	-0.13855	0.000152588	
6.58569	-0.138245	0.000915527	
6.5863	-0.13916	0.000305176	
6.58661	-0.138855	0.000305176	
6.5863	-0.139465	0.000610352	
6.586	-0.13916	0.000305176	
6.58661	-0.13916	0.000610352	
6.5863	-0.13916	0.000305176	
6.58722	-0.13855	-0.000152588	
6.5863	-0.13855	0.000152588	
6.586	-0.138855	-0.000152588	
6.58691	-0.13855	0.000305176	
6.5863	-0.13916	0.000305176	
6.586	-0.139465	0.000305176	
6.5863	-0.138245	0.000610352	
6.58691	-0.13855	0.000457764	
6.586	-0.13855	0.000457764	
6.586	-0.13855	0.000457764	
6.5863	-0.13855	0.000305176	
6.58691	-0.138855	0.000457764	
6.58539	-0.138855	0.000152588	
6.5863	-0.13855	0.000305176	
6.58661	-0.138855	0.000457764	
6.5863	-0.13855	0.000152588	
6.586	-0.138855	0.000305176	
6.5863	-0.138855	0.000457764	
6.5863	-0.138855	0.000610352	
6.58691	-0.13916	0.000457764	
6.5863	-0.138855	0.000457764	
6.58691	-0.138855	0.000305176	
6.58661	-0.137939	0.000457764	
6.5863	-0.13916	0.000762939	
6.58661	-0.138855	0.000457764	
6.58569	-0.138245	0.000152588	
6.58661	-0.13855	0.000457764	
6.58691	-0.13855	0.000305176	
6.58966	-0.13916	0.000152588	
6.59149	-0.13855	0.000305176	
6.59088	-0.13855	0.000305176	
6.5918	-0.13855	0.000457764	
6.59088	-0.13855	0.000152588	
6.59119	-0.138855	0.000610352	
6.59119	-0.139465	0.000305176	
6.59119	-0.13916	0.000457764	
6.59119	-0.138245	0.000457764	
6.59027	-0.138245	0.000457764	
6.5918	-0.138855	0.000610352	
6.59119	-0.141296	0	
6.59119	-0.143738	0.000305176	
6.5918	-0.143738	0.000152588	
6.59119	-0.143127	0	
6.59119	-0.144043	0.000457764	
6.59088	-0.143738	0.000457764	
6.5918	-0.144043	0.000457764	
6.59119	-0.144043	0.000762939	
6.59119	-0.143738	0.000305176	
6.59119	-0.144043	0.000152588	
6.59119	-0.144043	0.000305176	
6.5918	-0.143738	0.000152588	
6.59088	-0.144043	0.000305176	
6.59058	-0.143433	0	
6.59119	-0.144043	0.000305176	
6.5918	-0.144043	0	
6.59119	-0.144043	0.000305176	
6.59088	-0.143738	0.000305176	
6.59027	-0.143127	0.000610352	
6.59119	-0.144348	0.000152588	
6.59088	-0.144043	0.000610352	
6.59149	-0.144348	0.000762939	
6.59058	-0.143433	0.000610352	
6.5918	-0.144348	0.000305176	
6.59119	-0.144043	0.000762939	
6.59088	-0.143738	0.000610352	
6.59119	-0.143738	0.000305176	
6.59119	-0.144348	0.000610352	
6.59088	-0.144043	0.000152588	
6.59088	-0.144043	0.000152588	
6.59088	-0.144348	0.000457764	
6.5921	-0.144043	0.000152588	
6.59088	-0.144043	0.000305176	
6.59119	-0.143738	0.000610352	
6.5921	-0.144348	0.000610352	
6.59088	-0.142822	0.000457764	
6.59119	-0.143738	0.000305176	
6.5918	-0.144043	0.000610352	
6.59058	-0.143738	0.000610352	
6.59149	-0.144348	0.000610352	
6.59119	-0.143738	-0.000152588	
6.59119	-0.143738	-0.000152588	
6.59088	-0.144043	0	
6.5921	-0.143738	0.000152588	
6.5921	-0.144348	0.000457764	
6.59088	-0.143738	0.000457764	
6.59119	-0.144043	0.000457764	
6.5918	-0.143433	0.000305176	
6.59119	-0.143127	0.000457764	
6.59149	-0.143433	0.000610352	
6.59088	-0.143127	0.000152588	
6.59088	-0.144043	0.000152588	
6.5918	-0.144043	0.000152588	
6.59088	-0.144653	0.000305176	
6.59088	-0.144043	0.000762939	
6.59119	-0.143433	0.000305176	
6.59119	-0.143738	0.000457764	
6.59088	-0.143433	0.000457764	
6.59088	-0.143738	0.000305176	
6.59119	-0.143433	0.000457764	
6.59119	-0.143127	0.00106812	
6.59119	-0.144348	0.000610352	
6.59088	-0.144043	0	
6.5918	-0.143738	0.000152588	
6.5918	-0.143738	0.000457764	
6.59241	-0.143738	0.000610352	
6.59485	-0.143738	0	
6.59576	-0.143433	0.000152588	
6.59546	-0.144043	0.000152588	
6.59576	-0.143738	0.000610352	
6.59607	-0.143738	0.000610352	
6.59576	-0.143738	0.000457764	
6.59576	-0.144043	0.000610352	
6.59607	-0.143433	0.000457764	
6.59668	-0.144348	0.00106812	
6.59607	-0.143738	0.000457764	
6.59607	-0.143433	0.000305176	
6.59698	-0.144348	0.000457764	
6.59607	-0.143738	0.000305176	
6.59607	-0.143738	0.000457764	
6.59607	-0.144348	-0.000305176	
6.59637	-0.143738	-0.000152588	
6.59607	-0.144043	0.000152588	
6.59607	-0.143738	0	
6.59546	-0.143738	0.000457764	
6.59607	-0.143738	0.000152588	
6.59607	-0.144043	0.000305176	
6.59607	-0.144043	0.000457764	
6.59607	-0.144043	0.000457764	
6.59637	-0.144043	0.000305176	
6.59576	-0.146179	0.000305176	
6.59607	-0.148621	0.000457764	
6.59607	-0.148621	0.000305176	
6.59637	-0.148926	-0.000152588	
6.59576	-0.148621	0.000305176	
6.59576	-0.148926	0.000457764	
6.59607	-0.148315	0.000152588	
6.59637	-0.14801	0.000305176	
6.59668	-0.148926	0.000457764	
6.59576	-0.148315	0.000610352	
6.59668	-0.148315	0.000457764	
6.59698	-0.148621	0.000610352	
6.59637	-0.148315	0.000610352	
6.59668	-0.148926	0.000152588	
6.59546	-0.148315	0.000457764	
6.59607	-0.148621	0.000457764	
6.59698	-0.148315	0.000305176	
6.59668	-0.149231	0.000152588	
6.59576	-0.148621	0.000457764	
6.59607	-0.148926	0.000152588	
6.59607	-0.148621	0.000457764	
6.59607	-0.148926	0.000152588	
6.59515	-0.148315	0.000305176	
6.59637	-0.148621	0.000610352	
6.59546	-0.149231	0.000915527	
6.59546	-0.148315	0.000457764	
6.59607	-0.148621	0.000305176	
6.59576	-0.148621	0.000305176	
6.59302	-0.148315	0.000610352	
6.5918	-0.14801	0.000305176	
6.59058	-0.148315	0.000152588	
6.59058	-0.148926	0.000305176	
6.59149	-0.148926	0.000152588	
6.59058	-0.148315	0	
6.59088	-0.148315	0.000305176	
6.59149	-0.148621	0.000457764	
6.59119	-0.148621	0.000457764	
6.59119	-0.148621	0.000762939	
6.59088	-0.148621	0.000457764	
6.59119	-0.148621	0.000305176	
6.59088	-0.148621	0.000457764	
6.59027	-0.147705	0.000457764	
6.59088	-0.148621	0.000305176	
6.59088	-0.148621	0.000152588	
6.59088	-0.148926	0.000457764	
6.59088	-0.148621	0	
6.59088	-0.148621	0.000152588	
6.5918	-0.148621	0.000152588	
6.59088	-0.14801	0.000305176	
6.59149	-0.148315	0.000305176	
6.5918	-0.148315	0.00106812	
6.59119	-0.148621	0.000610352	
6.59149	-0.148315	0.000305176	
6.59088	-0.148621	0	
6.59119	-0.151062	0.000762939	
6.5918	-0.152588	0.000610352	
6.59119	-0.153198	0.000152588	
6.59149	-0.153503	0.000305176	
6.59088	-0.153503	0.000457764	
6.59088	-0.153809	0.000457764	
6.59058	-0.153809	0.000305176	
6.59088	-0.154419	0.000305176	
6.59088	-0.153809	0.000305176	
6.59058	-0.153503	0.000152588	
6.59119	-0.153809	0.000305176	
6.59149	-0.153809	0.000305176	
6.59119	-0.153503	0.000305176	
6.59119	-0.153809	0.000610352	
6.5918	-0.153198	0.000305176	
6.59119	-0.153809	0.000305176	
6.59149	-0.153809	0.000152588	
6.59119	-0.154114	-0.000152588	
6.59088	-0.153809	0.000152588	
6.59119	-0.153503	0	
6.59119	-0.153503	0.000152588	
6.5918	-0.154114	0.000152588	
6.5918	-0.153503	0.000152588	
6.59119	-0.153503	0.000305176	
6.59058	-0.153503	0.000305176	
6.59088	-0.154419	0.000457764	
6.59058	-0.153503	0.000152588	
6.59088	-0.153809	0.000610352	
6.59149	-0.154114	0.000457764	
6.59088	-0.153503	0.000152588	
6.59058	-0.154419	0.000457764	
6.59119	-0.153503	0.000152588	
6.59119	-0.153198	0.000152588	
6.59119	-0.153503	0.000305176	
6.59088	-0.153503	0.000305176	
6.59149	-0.153503	0.000152588	
6.59119	-0.152893	0.000610352	
6.59119	-0.153503	0.000610352	
6.59119	-0.153503	0.000762939	
6.59088	-0.153809	0.000305176	
6.5918	-0.154114	0.000762939	
6.59119	-0.153809	0.000305176	
6.59088	-0.153503	0.000305176	
6.5918	-0.153198	0.000152588	
6.59088	-0.153503	0.000305176	
6.59119	-0.153198	0.000762939	
6.59088	-0.153198	0.000152588	
6.59088	-0.153503	0.000305176	
6.59088	-0.153503	0.000457764	
6.59119	-0.153198	0.000305176	
6.59119	-0.154114	0.000610352	
6.59088	-0.153503	0.000457764	
6.59149	-0.153809	0.000457764	
6.59119	-0.153503	0.000610352	
6.59119	-0.154419	0.000457764	
6.58752	-0.153503	0.000610352	
6.58661	-0.15564	-0.000152588	
6.586	-0.158081	0.000152588	
6.5863	-0.158386	0.000457764	
6.586	-0.158997	-0.000152588	
6.586	-0.158386	0.000305176	
6.58691	-0.158691	0.000305176	
6.5863	-0.157776	0.000305176	
6.5863	-0.158691	0.000305176	
6.5863	-0.158081	0.000762939	
6.5863	-0.157776	0.000457764	
6.5863	-0.158081	0.000305176	
6.5863	-0.158691	0.000457764	
6.58691	-0.158691	0.000305176	
6.5863	-0.157471	0	
6.5863	-0.158081	0.000457764	
6.586	-0.158081	0.000305176	
6.58569	-0.158081	0.000305176	
6.58569	-0.158081	0.000457764	
6.58722	-0.158691	0.000457764	
6.5863	-0.158386	0.000152588	
6.5863	-0.158081	0.000762939	
6.58661	-0.158386	0.000915527	
6.58691	-0.157776	0.000457764	
6.58539	-0.158386	0.000457764	
6.586	-0.158081	0.000610352	
6.5863	-0.158081	0.000610352	
6.586	-0.158997	0.000152588	
6.5863	-0.158081	0.000152588	
6.586	-0.158081	0	
6.5863	-0.158386	0.000305176	
6.586	-0.158081	0.000152588	
6.5863	-0.158691	0.000305176	
6.58661	-0.158081	0.000152588	
6.5863	-0.158081	0.000457764	
6.58539	-0.158386	0.000762939	
6.5863	-0.158691	0.000457764	
6.586	-0.158386	0.000610352	
6.58569	-0.157776	0.000610352	
6.58661	-0.158081	0.000762939	
6.58661	-0.158386	0.000152588	
6.586	-0.158081	0.000152588	
6.58325	-0.158081	0.000152588	
6.58203	-0.158081	0.000610352	
6.58112	-0.158386	0	
6.58112	-0.158081	0.000610352	
6.58142	-0.158691	0	
6.58203	-0.157471	0.000305176	
6.58112	-0.157471	0.000457764	
6.58112	-0.158691	0.000762939	
6.58112	-0.15625	0.000457764	
6.58112	-0.154724	0.000305176	
6.58081	-0.153198	0.000305176	
6.58081	-0.153503	0.000305176	
6.58142	-0.154114	-0.000152588	
6.58112	-0.153503	0.000762939	
6.58112	-0.153503	0.000305176	
6.58081	-0.153503	0.000305176	
6.58081	-0.153503	0.000457764	
6.58112	-0.154114	0.000457764	
6.58112	-0.153503	0.000457764	
6.58142	-0.153503	0.000305176	
6.58081	-0.153809	0.000762939	
6.58112	-0.153198	0.000610352	
6.58112	-0.153503	0.000305176	
6.58112	-0.153198	0.000457764	
6.58142	-0.153809	0.000457764	
6.58081	-0.153503	0.000610352	
6.58173	-0.153503	0.000305176	
6.58142	-0.153809	0.000152588	
6.58081	-0.153503	0.000152588	
6.58081	-0.153198	0.000305176	
6.5802	-0.153809	0.000152588	
6.57806	-0.153809	0.000457764	
6.57654	-0.151367	0.000457764	
6.57593	-0.148926	0.000610352	
6.57654	-0.148621	0.000457764	
6.57654	-0.148621	0.000762939	
6.57623	-0.148621	0.000152588	
6.57623	-0.148621	0.000762939	
6.57623	-0.149231	0.000457764	
6.57623	-0.148621	0.000152588	
6.57654	-0.148926	0.000152588	
6.57684	-0.148926	0.000457764	
6.57623	-0.148315	0	
6.57593	-0.148621	0.000305176	
6.57593	-0.148926	0.000305176	
6.57623	-0.146484	0.000457764	
6.57562	-0.144043	0.000305176	
6.57623	-0.143433	0.000305176	
6.57623	-0.143738	0.000610352	
6.57715	-0.143738	0.000305176	
6.57623	-0.143738	0.000305176	
6.57623	-0.143433	0.000762939	
6.57593	-0.143738	0.000305176	
6.57623	-0.143127	0.000305176	
6.57654	-0.141296	0.000305176	
6.57593	-0.139465	0.000152588	
6.57562	-0.13855	0.000457764	
6.57318	-0.13916	0.000305176	
6.57227	-0.138855	0.000762939	
6.57166	-0.138855	0.000457764	
6.57135	-0.138855	0.000610352	
6.57104	-0.139465	0.000457764	
6.57104	-0.136414	0.000305176	
6.57074	-0.134888	0.000915527	
6.57135	-0.133972	0.000915527	
6.57074	-0.134277	0.000305176	
6.57104	-0.133972	0	
6.57135	-0.133972	0	
6.57166	-0.131226	0.000305176	
6.57135	-0.129089	0.000305176	
6.57196	-0.129089	0.000152588	
6.57074	-0.128784	0.000762939	
6.57135	-0.128784	0.000305176	
6.57074	-0.128784	0.000762939	
6.57135	-0.126343	0.000457764	
6.57104	-0.124512	0.000152588	
6.57196	-0.124207	0.000305176	
6.57104	-0.124512	0.000305176	
6.57135	-0.123901	0.000457764	
6.57166	-0.12146	0	
6.57043	-0.118713	-0.000152588	
6.56769	-0.119019	0.000305176	
6.56647	-0.119019	0	
6.56586	-0.119629	0.000457764	
6.56616	-0.116272	0.000457764	
6.56616	-0.114441	0.000762939	
6.56647	-0.114136	0.000762939	
6.56616	-0.113831	0.000457764	
6.56616	-0.114746	0.000457764	
6.56647	-0.112	0.000457764	
6.56647	-0.109863	0.000457764	
6.56586	-0.109253	0.000305176	
6.56647	-0.108948	0	
6.56616	-0.107117	0.000762939	
6.56616	-0.105591	0.000457764	
6.56647	-0.10498	0.000610352	
6.56616	-0.10437	0.000610352	
6.56616	-0.101929	0.000305176	
6.56616	-0.0997925	0.000152588	
6.56616	-0.0994873	0.000762939	
6.56616	-0.0967407	0.00106812	
6.56647	-0.0952148	0.000762939	
6.56555	-0.0942993	0	
6.56281	-0.0939941	0.00106812	
6.56128	-0.0921631	0.000457764	
6.56158	-0.090332	0.000305176	
6.56097	-0.0897217	0.000152588	
6.56128	-0.0872803	0.000305176	
6.56189	-0.0854492	0.000457764	
6.56128	-0.0848389	0.000152588	
6.56158	-0.0845337	0.000152588	
6.56189	-0.0827026	0.000305176	
6.56128	-0.0805664	0.000152588	
6.56128	-0.0796509	0.000762939	
6.56189	-0.0772095	0.000457764	
6.56219	-0.0753784	0.000152588	
6.56128	-0.0747681	0.000305176	
6.56158	-0.0723267	0.000152588	
6.56158	-0.0708008	0.000305176	
6.56158	-0.0708008	0.000305176	
6.56128	-0.067749	-0.000152588	
6.56158	-0.065918	0.000305176	
6.56067	-0.0646973	0.000152588	
6.55853	-0.0619507	0.000457764	
6.5564	-0.06073	-0.000305176	
6.55701	-0.0601196	0.000610352	
6.55609	-0.0576782	0.000457764	
6.5564	-0.0558472	0.000457764	
6.5567	-0.0549316	0.000457764	
6.5564	-0.0534058	0.000152588	
6.55701	-0.0509644	0.000305176	
6.55579	-0.0485229	0.000305176	
6.5564	-0.0457764	-0.000152588	
6.55609	-0.0448608	0.000305176	
6.5564	-0.043335	0.000152588	
6.55701	-0.0411987	0.000305176	
6.55609	-0.0405884	0.000305176	
6.5567	-0.038147	0.000457764	
6.5567	-0.0360107	0.000305176	
6.5567	-0.0332642	0.000915527	
6.5564	-0.0314331	0.000610352	
6.55609	-0.0311279	0.000457764	
6.5564	-0.0286865	0.000152588	
6.55182	-0.0256348	0.000915527	
6.55273	-0.0238037	0.000457764	
6.55121	-0.0213623	0.000305176	
6.55182	-0.0216675	0.000305176	
6.55182	-0.0186157	0.000152588	
6.55182	-0.0167847	0.000305176	
6.55273	-0.0137329	0.000152588	
6.5509	-0.0112915	0.000152588	
6.55121	-0.0088501	0.000152588	
6.55182	-0.00640869	0.000152588	
6.55121	-0.00610352	0.000457764	
6.55121	-0.00396729	0.000152588	
6.55151	-0.00183105	0.000457764	
6.55182	0.000305176	0.000610352	
6.55212	0.00244141	0.000152588	
6.55182	0.00518799	0.000457764	
6.55182	0.00793457	0.000305176	
6.55121	0.00793457	0	
6.55151	0.0106812	0.000152588	
6.54846	0.0128174	0	
6.54694	0.015564	0.000610352	
6.54694	0.0177002	0.000305176	
6.54785	0.0201416	0.000305176	
6.54602	0.0231934	0.000152588	
6.54633	0.0231934	0.000457764	
6.54694	0.0253296	0.000305176	
6.54663	0.0271606	0.000305176	
6.54694	0.0302124	0.000610352	
6.54663	0.0323486	0.000915527	
6.54694	0.0350952	0	
6.54785	0.0375366	0.000610352	
6.54694	0.039978	0.000152588	
6.54724	0.0418091	0.000305176	
6.54724	0.045166	0.000457764	
6.54694	0.0469971	0.000305176	
6.54755	0.0473022	0.000152588	
6.54663	0.0500488	0.000457764	
6.54358	0.0515747	0.000457764	
6.54175	0.0546265	0.000762939	
6.54205	0.057373	0.000305176	
6.54175	0.0595093	0.000762939	
6.54175	0.0622559	0.000610352	
6.54175	0.0653076	0.000457764	
6.54205	0.065918	0.000457764	
6.54175	0.0695801	0.000152588	
6.54205	0.0717163	0.000152588	
6.54144	0.0717163	0.000457764	
6.54175	0.0747681	0.000457764	
6.54144	0.0765991	0.000457764	
6.54144	0.0796509	0.000152588	
6.54144	0.0808716	0.000610352	
6.54144	0.0836182	0.000762939	
6.54175	0.0857544	0.000457764	
6.54205	0.088501	0.000457764	
6.54083	0.0900269	0.000457764	
6.53839	0.093689	0.000457764	
6.53839	0.0946045	0.000152588	
6.53687	0.0952148	0.000152588	
6.53717	0.098877	0.000305176	
6.53687	0.100098	-0.000152588	
6.53656	0.103455	0.000457764	
6.53687	0.105286	0.000610352	
6.53717	0.108032	0.000610352	
6.53687	0.109863	0.000457764	
6.53656	0.113525	0.000610352	
6.53625	0.115356	0.000457764	
6.53717	0.118103	0.000152588	
6.53717	0.120239	0.000457764	
6.53625	0.120544	0.000305176	
6.53687	0.123291	0	
6.53687	0.125122	0.000610352	
6.53687	0.127869	0.000457764	
6.53351	0.129395	0.000610352	
6.53229	0.132446	0.000305176	
6.53168	0.134888	0.000457764	
6.53137	0.137634	0.000152588	
6.53198	0.140076	0.000305176	
6.53168	0.140076	0.000762939	
6.53229	0.142212	0.000915527	
6.53229	0.144958	0.000305176	
6.53198	0.14801	0.000915527	
6.53198	0.149536	0.000457764	
6.53168	0.152893	0.000457764	
6.53168	0.154419	0.000305176	
6.53198	0.157471	0.000152588	
6.53198	0.158691	0.000457764	
6.53168	0.158997	0.000152588	
6.53137	0.161133	0.000305176	
6.53076	0.163269	0.000152588	
6.52863	0.167236	0.000305176	
6.52679	0.168762	0.000915527	
6.52649	0.169373	0.000305176	
6.52679	0.172119	0.000610352	
6.5271	0.174255	0.000457764	
6.52771	0.177612	0.000457764	
6.52649	0.178833	0.000457764	
6.5271	0.181274	0	
6.5271	0.183411	0	
6.5271	0.183716	0.000152588	
6.52679	0.186462	-0.000152588	
6.52649	0.188904	0.000610352	
6.52679	0.191345	0.000152588	
6.5271	0.194092	0.000305176	
6.5271	0.194702	0.000762939	
6.5274	0.196838	0.000610352	
6.52679	0.198975	0.000457764	
6.52405	0.201111	0.000305176	
6.52191	0.202942	0.000457764	
6.52191	0.204773	0.000152588	
6.52222	0.205994	-0.000152588	
6.52161	0.20752	0.000152588	
6.52222	0.208435	0	
6.52161	0.211182	0.000305176	
6.52161	0.212708	0.000305176	
6.5213	0.21637	0.000457764	
6.52191	0.217285	0.000457764	
6.52222	0.219116	0.000457764	
6.52191	0.220337	0.000762939	
6.52191	0.222778	0.000610352	
6.52283	0.223694	0.000152588	
6.52222	0.22644	0.000762939	
6.52161	0.227661	0.000305176	
6.5213	0.228271	0.000457764	
6.51886	0.231323	0.000305176	
6.51733	0.232849	0	
6.51611	0.233154	0.000457764	
6.51672	0.235901	0.000457764	
6.51703	0.237427	0.000305176	
6.51672	0.238037	0.000305176	
6.51733	0.240173	0.000610352	
6.51703	0.24231	0.000762939	
6.51733	0.242615	0.000457764	
6.51703	0.245361	0.000457764	
6.51611	0.247498	0.000457764	
6.51703	0.248413	0.000305176	
6.51672	0.250549	0.000457764	
6.51703	0.25238	0.000305176	
6.51703	0.252991	0	
6.51672	0.255127	0.000152588	
6.51367	0.256958	0.000152588	
6.51245	0.257568	0.000152588	
6.51245	0.26062	0.000305176	
6.51184	0.261536	0.000305176	
6.51154	0.263062	0.000610352	
6.51184	0.263062	0.000610352	
6.51215	0.265503	0.000610352	
6.51215	0.266724	0.000457764	
6.51245	0.267334	0.000305176	
6.51215	0.270691	0.000457764	
6.51154	0.271912	-0.000152588	
6.51184	0.271606	0.000305176	
6.51184	0.272217	0	
6.51184	0.274048	0.000152588	
6.51184	0.27771	0.000152588	
6.51184	0.277405	0.000305176	
6.50848	0.280151	0	
6.50787	0.281067	0.000457764	
6.50726	0.282593	0.000610352	
6.50757	0.282898	0.000610352	
6.50726	0.284729	0	
6.50757	0.28656	0.000762939	
6.50665	0.28717	0.000457764	
6.50757	0.28717	0.000305176	
6.50726	0.287781	0.000457764	
6.50757	0.289307	0.000457764	
6.50665	0.291443	0.000457764	
6.50696	0.292053	0.000457764	
6.50757	0.292053	0.000305176	
6.50665	0.294495	0.000305176	
6.50696	0.296326	0	
6.50635	0.296936	0.000305176	
6.50299	0.297546	0.000305176	
6.50208	0.296631	0.000457764	
6.50208	0.299072	0.000610352	
6.50146	0.301819	0.000152588	
6.50177	0.301514	0.000457764	
6.50238	0.302429	0.000305176	
6.50208	0.30426	0.000152588	
6.50208	0.306396	0.000305176	
6.50177	0.307007	0.000152588	
6.50208	0.306702	0.000610352	
6.50177	0.306702	0.000762939	
6.50208	0.307312	0.000305176	
6.50238	0.309448	0.000610352	
6.5033	0.311584	0.000457764	
6.50177	0.312195	0.000305176	
6.49933	0.312195	0.000457764	
6.49689	0.31189	0.000457764	
6.4975	0.311584	0.000457764	
6.49719	0.313721	0.000305176	
6.4975	0.316162	0.000457764	
6.49719	0.316162	0.000457764	
6.49658	0.316467	0.000152588	
6.49719	0.316162	0	
6.4975	0.316772	0.000305176	
6.49719	0.318298	0.000152588	
6.4975	0.321045	0.000457764	
6.49689	0.32135	0.000762939	
6.4975	0.321655	0.000457764	
6.49689	0.321655	0.000305176	
6.49597	0.321655	0.000915527	
6.49292	0.32074	0.000152588	
6.49261	0.323792	0.000457764	
6.49261	0.325928	0.000305176	
6.492	0.325623	0.000152588	
6.492	0.325928	0.000305176	
6.492	0.326538	0.000457764	
6.49231	0.325928	0.000610352	
6.492	0.325928	0	
6.49231	0.326538	0.000457764	
6.49109	0.326233	0.000762939	
6.492	0.328979	0.000915527	
6.49292	0.330505	0.000152588	
