model_ppg1.acq
0.5 msec/sample
3 channels
RSP, X, RSPEC-R
Volts
PPG, X, PPGED-R
Volts
ECG, Y, RSPEC-R
mV
CH1	CH2	CH13	
243838	243838	243838	
6.33423	-0.256042	0.000305176	
6.33453	-0.256653	-0.000152588	
6.33453	-0.256042	0.000915527	
6.33423	-0.256042	0.000305176	
6.33484	-0.256653	0	
6.33423	-0.255432	0.000305176	
6.33667	-0.256042	0.000305176	
6.33881	-0.256042	0.000152588	
6.33942	-0.256348	0.000457764	
6.33972	-0.256653	0.000610352	
6.33911	-0.256042	0.000457764	
6.33911	-0.256348	-0.000457764	
6.33942	-0.256042	0.00106812	
6.33972	-0.256653	0.000457764	
6.34003	-0.256042	0.000457764	
6.33972	-0.256348	0.000915527	
6.34033	-0.256042	0.000305176	
6.33972	-0.253601	0.000305176	
6.33911	-0.252075	0.000152588	
6.34186	-0.251465	0.000457764	
6.34369	-0.251465	0.000457764	
6.34369	-0.251465	-0.000152588	
6.3446	-0.251465	0.00106812	
6.34399	-0.25116	0.000610352	
6.3446	-0.251465	0.000762939	
6.34399	-0.25177	0.000762939	
6.3446	-0.251465	0.000457764	
6.3443	-0.25177	0.000457764	
6.34491	-0.252075	0.000305176	
6.3446	-0.251465	0.000457764	
6.3443	-0.25116	0.000457764	
6.34399	-0.25177	-0.000152588	
6.34399	-0.250854	0.000915527	
6.34766	-0.25116	0.000457764	
6.34918	-0.25116	0.000457764	
6.34888	-0.25116	0.000610352	
6.34979	-0.251465	0.000305176	
6.34979	-0.248413	0.000457764	
6.34888	-0.246887	0.000457764	
6.34918	-0.246277	0.000305176	
6.34949	-0.245972	0.000305176	
6.34918	-0.246582	-0.000152588	
6.34888	-0.246277	0.00137329	
6.34857	-0.246277	0.000152588	
6.34949	-0.246582	0	
6.34918	-0.246887	0	
6.34949	-0.246887	0.000457764	
6.35254	-0.246277	0.000305176	
6.35345	-0.246277	0.000305176	
6.35406	-0.246277	0.000305176	
6.35498	-0.245667	0.000305176	
6.35437	-0.246582	-0.000152588	
6.35406	-0.246887	0.00137329	
6.35406	-0.246277	0.000305176	
6.35437	-0.246887	0.000457764	
6.35406	-0.247192	0.000457764	
6.35376	-0.246582	0.000152588	
6.35406	-0.246582	0.000152588	
6.35468	-0.24353	0.000152588	
6.35468	-0.242004	0.000457764	
6.35406	-0.241089	0.000305176	
6.35468	-0.241699	-0.000610352	
6.35406	-0.241699	0.00106812	
6.3562	-0.242004	0.000305176	
6.35834	-0.241699	0.0012207	
6.35895	-0.242004	0.000610352	
6.35925	-0.241699	0.000457764	
6.35956	-0.241394	0.000457764	
6.35956	-0.241089	0.000457764	
6.36017	-0.241394	0.000762939	
6.35895	-0.241699	0.000305176	
6.35895	-0.242004	-0.000610352	
6.35925	-0.241699	0.00106812	
6.35956	-0.241699	0.000305176	
6.35925	-0.241394	0.000457764	
6.35895	-0.242004	0.000610352	
6.35956	-0.241699	0.000610352	
6.35895	-0.241089	0.000915527	
6.35864	-0.241394	0.000762939	
6.36169	-0.238342	0.000610352	
6.36353	-0.237122	0.000305176	
6.36414	-0.237122	-0.000305176	
6.36414	-0.236816	0.00106812	
6.36444	-0.236816	0.000305176	
6.36475	-0.236816	0.000152588	
6.36444	-0.236206	0.000152588	
6.36414	-0.236511	0.000457764	
6.36414	-0.236816	0.000152588	
6.36414	-0.236816	0.000457764	
6.36383	-0.236816	0.000305176	
6.36475	-0.236511	0.000915527	
6.36414	-0.236816	-0.000762939	
6.36444	-0.237122	0.0012207	
6.36322	-0.236816	0.000610352	
6.36414	-0.236206	0.000457764	
6.36383	-0.23407	0.000305176	
6.36658	-0.231934	0.000305176	
6.3681	-0.232239	0.000152588	
6.36932	-0.231628	0.000305176	
6.36963	-0.231934	0.000610352	
6.36963	-0.232239	0.000457764	
6.36871	-0.231934	-0.000457764	
6.36932	-0.231628	0.000762939	
6.36871	-0.231018	0.000610352	
6.36932	-0.232239	0.000915527	
6.36963	-0.232239	0.000457764	
6.36932	-0.232544	0.000610352	
6.36902	-0.231934	0.000610352	
6.36902	-0.229187	0.000305176	
6.36871	-0.227661	0.000457764	
6.36902	-0.226746	0.000152588	
6.36902	-0.227661	-0.000305176	
6.36902	-0.227356	0.000915527	
6.36902	-0.227356	0.000457764	
6.36963	-0.227661	0.000305176	
6.37085	-0.227661	0.000457764	
6.3736	-0.226746	0.000610352	
6.37451	-0.227051	0.000915527	
6.37451	-0.224304	0.000457764	
6.37451	-0.223389	0.000457764	
6.37451	-0.221558	0.000610352	
6.3736	-0.221863	-0.000305176	
6.3739	-0.223083	0.00106812	
6.37421	-0.222168	0.000152588	
6.37451	-0.222168	-0.000305176	
6.37451	-0.222778	0	
6.37421	-0.219421	0.000457764	
6.37421	-0.21759	0.000305176	
6.3739	-0.217285	0.000305176	
6.3736	-0.217285	0.000457764	
6.37451	-0.217285	0.000305176	
6.37421	-0.21698	-0.000152588	
6.37451	-0.216675	0.000915527	
6.3739	-0.213928	0.000457764	
6.37421	-0.213013	0.000305176	
6.37634	-0.212097	0.000152588	
6.37817	-0.212097	0.000305176	
6.37909	-0.212097	0	
6.37909	-0.213013	0.000152588	
6.37939	-0.209351	0.000152588	
6.37909	-0.207825	0.000152588	
6.37909	-0.207825	-0.000762939	
6.37878	-0.207214	0.000915527	
6.37909	-0.207214	0.000305176	
6.37939	-0.205078	0.000915527	
6.37878	-0.202332	0.000457764	
6.37878	-0.202637	0.000152588	
6.38	-0.202637	0.000305176	
6.37878	-0.199585	0.000457764	
6.37909	-0.198059	0.000305176	
6.37909	-0.197754	0.000305176	
6.3797	-0.197754	-0.000305176	
6.37939	-0.197449	0.000915527	
6.37878	-0.194092	0.000152588	
6.37878	-0.192871	0	
6.37909	-0.192871	0.000305176	
6.37848	-0.192261	0.000305176	
6.3797	-0.189819	0.000762939	
6.3797	-0.187378	0.000305176	
6.38123	-0.187073	0.000305176	
6.38397	-0.184326	0.000305176	
6.38367	-0.1828	-0.000305176	
6.38428	-0.182495	0.00106812	
6.38397	-0.183716	0.000762939	
6.38367	-0.180054	-0.000152588	
6.38397	-0.178528	0.000305176	
6.38397	-0.177612	0.000305176	
6.38397	-0.174561	0	
6.38397	-0.17395	0.000457764	
6.38428	-0.172119	0.000610352	
6.38367	-0.169983	0.000457764	
6.38397	-0.168457	-0.000152588	
6.38428	-0.168152	0.00106812	
6.38397	-0.1651	0.000152588	
6.38428	-0.163269	0.000305176	
6.38336	-0.162964	0.000762939	
6.38428	-0.161133	0.000305176	
6.38397	-0.158691	0.000152588	
6.38367	-0.158997	0.000152588	
6.38397	-0.155945	0.000305176	
6.38458	-0.153809	0.000457764	
6.38367	-0.150757	-0.000305176	
6.38397	-0.148926	0.00106812	
6.38428	-0.148315	0.000610352	
6.38367	-0.145569	0.000762939	
6.38428	-0.144043	0.000457764	
6.38611	-0.140991	0.000610352	
6.38855	-0.139465	0	
6.38885	-0.138855	0.000305176	
6.38916	-0.135498	0.000305176	
6.38885	-0.134277	0.000305176	
6.38916	-0.131226	-0.000457764	
6.38885	-0.1297	0.00106812	
6.38916	-0.126038	0.000305176	
6.38885	-0.124207	0.000152588	
6.38947	-0.12146	0.000152588	
6.38855	-0.119324	0.000457764	
6.38855	-0.116272	0.000610352	
6.38916	-0.114441	0.000457764	
6.38916	-0.114441	0.000305176	
6.38885	-0.111084	0.000305176	
6.38885	-0.108948	-0.000305176	
6.38916	-0.106506	0.00106812	
6.38916	-0.10498	0.000152588	
6.38885	-0.101318	0.000152588	
6.38916	-0.0976563	0.000152588	
6.38855	-0.0942993	0.000305176	
6.38855	-0.0921631	0	
6.38916	-0.0900269	0.000305176	
6.38855	-0.0869751	0.000152588	
6.38916	-0.0845337	0.000457764	
6.38916	-0.0820923	-0.000610352	
6.38885	-0.0802612	0.00106812	
6.38885	-0.0765991	0.000457764	
6.38916	-0.0753784	0.000457764	
6.38824	-0.0720215	0.000610352	
6.38916	-0.067749	0.000457764	
6.38885	-0.0653076	-0.000152588	
6.38885	-0.062561	0.000305176	
6.38855	-0.0601196	0.000305176	
6.38916	-0.057373	0	
6.38885	-0.0531006	-0.000305176	
6.38855	-0.0506592	0.000915527	
6.38855	-0.0479126	0.000610352	
6.38916	-0.0460815	0.000457764	
6.38947	-0.0427246	0.000762939	
6.38947	-0.0384521	0.000305176	
6.38855	-0.0354004	0.000457764	
6.38916	-0.0332642	0.000152588	
6.38916	-0.0314331	0.000152588	
6.38916	-0.027771	0.000457764	
6.39099	-0.0250244	-0.000305176	
6.39313	-0.0216675	0.000915527	
6.39465	-0.017395	0.000457764	
6.39404	-0.0137329	0	
6.39343	-0.0115967	0.000762939	
6.39374	-0.00793457	0.000457764	
6.39404	-0.00396729	0.000457764	
6.39374	-0.00152588	0.000610352	
6.39435	0.0012207	0.000305176	
6.39435	0.00579834	0.000457764	
6.39374	0.00823975	-0.000305176	
6.39404	0.0112915	0.00106812	
6.39404	0.0158691	0.000305176	
6.39343	0.0183105	-0.000152588	
6.39374	0.0210571	0.000152588	
6.39404	0.0250244	0.000457764	
6.39374	0.0305176	0.000305176	
6.39404	0.032959	0.000305176	
6.39404	0.0360107	0	
6.39374	0.039978	0.000457764	
6.39404	0.0421143	0	
6.39435	0.0454712	0.0012207	
6.39343	0.0497437	0.000305176	
6.39435	0.0552368	0.000457764	
6.39465	0.0564575	0.000305176	
6.39404	0.0601196	0.000305176	
6.39404	0.0650024	0	
6.39404	0.0695801	0.000305176	
6.39404	0.0714111	0.000305176	
6.39404	0.0753784	0.000305176	
6.39404	0.0793457	-0.000305176	
6.39343	0.0802612	0.000610352	
6.39343	0.083313	0.000305176	
6.39374	0.0891113	0.000762939	
6.39404	0.093689	0.000305176	
6.39496	0.0952148	0.000305176	
6.39374	0.0994873	0.000762939	
6.39404	0.103455	0.000152588	
6.39374	0.108337	0.000457764	
6.39343	0.112915	0.000457764	
6.39343	0.115967	-0.000457764	
6.39343	0.118103	0.0012207	
6.39404	0.122375	0.000305176	
6.39374	0.128784	0.000305176	
6.39374	0.1297	0.000457764	
6.39374	0.133972	0.000610352	
6.39374	0.138245	0.000762939	
6.39374	0.142822	0.000457764	
6.39404	0.144348	0.000152588	
6.39374	0.14801	0.000305176	
6.39404	0.152588	-0.000305176	
6.39587	0.156555	0.00106812	
6.39801	0.159302	0.000610352	
6.39893	0.162354	0.000152588	
6.39801	0.166626	0	
6.39893	0.171814	0.000457764	
6.39862	0.176697	0.000305176	
6.39923	0.178223	0.000457764	
6.39923	0.18219	-0.000152588	
6.39923	0.186157	0.000305176	
6.39862	0.19165	-0.000457764	
6.39862	0.194092	0.0012207	
6.39893	0.197144	0.000305176	
6.39893	0.201111	0.000457764	
6.39893	0.206299	0.000457764	
6.39893	0.20813	0.000305176	
6.39893	0.211792	0.000152588	
6.39862	0.215454	0.000457764	
6.39923	0.220947	0.000457764	
6.39862	0.222778	0.000152588	
6.39862	0.226135	-0.000457764	
6.39832	0.230713	0.00106812	
6.39893	0.235596	0.000457764	
6.39862	0.240479	0.000305176	
6.39893	0.24292	0.000457764	
6.39832	0.245972	0.000762939	
6.39832	0.250549	0.000305176	
6.39893	0.255127	0.000457764	
6.39862	0.257263	0.000457764	
6.39862	0.260315	0	
6.39862	0.264587	-0.000152588	
6.39862	0.267334	0.0012207	
6.39862	0.270691	0.000457764	
6.39893	0.275574	0.000305176	
6.39893	0.279541	0.000305176	
6.39893	0.281677	0.000152588	
6.39832	0.285339	0.000610352	
6.39862	0.289307	0.000457764	
6.39862	0.2948	0.000152588	
6.39893	0.296326	0.000152588	
6.39893	0.299988	-0.000305176	
6.39862	0.304871	0.00137329	
6.39862	0.308838	0.000305176	
6.39862	0.31189	0	
6.39862	0.314331	0.000152588	
6.39801	0.318909	0.000457764	
6.39862	0.321045	0	
6.39954	0.324097	0.000457764	
6.39893	0.328369	0.000762939	
6.39862	0.331116	0.000457764	
6.39893	0.334167	-0.000305176	
6.39923	0.338745	0.00137329	
6.39832	0.343323	0.000305176	
6.39893	0.346069	0.000305176	
6.39923	0.349121	0.000610352	
6.39893	0.353394	0	
6.39862	0.355835	0.000152588	
6.39862	0.358582	0	
6.39923	0.362549	0.000152588	
6.39893	0.365295	0.000305176	
6.39862	0.368347	-0.000305176	
6.39893	0.37323	0.00106812	
6.39862	0.375061	0.000457764	
6.39801	0.378723	0.000610352	
6.39862	0.380249	0.000915527	
6.39832	0.383301	0.000305176	
6.39862	0.387878	0.000610352	
6.39862	0.390015	0.000305176	
6.39923	0.392456	0.000457764	
6.39893	0.397034	0	
6.39832	0.399475	-0.000305176	
6.39893	0.402832	0.0012207	
6.39893	0.407104	0.000457764	
6.39893	0.409241	0.000305176	
6.39862	0.412292	0.000305176	
6.39923	0.414124	0.000457764	
6.39862	0.417786	0.000762939	
6.39679	0.419617	0.000610352	
6.39435	0.422363	0.000457764	
6.39374	0.427246	0.000152588	
6.39374	0.428467	-0.000457764	
6.39404	0.432129	0.00106812	
6.39374	0.43396	0.000457764	
6.39343	0.437012	0.000305176	
6.39374	0.441589	0	
6.39404	0.444031	0.000305176	
6.39374	0.446472	0.000457764	
6.39313	0.448303	0.000305176	
6.39374	0.45166	0.000305176	
6.39343	0.454102	0.000305176	
6.39404	0.457153	-0.000457764	
6.39404	0.458069	0.0012207	
6.39343	0.461426	0.000457764	
6.39374	0.463257	0.000610352	
6.39404	0.466309	0.000610352	
6.39435	0.46814	0.000610352	
6.39343	0.471191	0.000305176	
6.39374	0.473022	0.000152588	
6.39374	0.475769	0.000305176	
6.39404	0.4776	0.000305176	
6.39404	0.481262	-0.000305176	
6.39374	0.482788	0.0012207	
6.39435	0.48584	0.000762939	
6.39435	0.487976	0.000457764	
6.39465	0.491028	0.000457764	
6.39343	0.492859	0.000305176	
6.39404	0.495911	0.000457764	
6.39374	0.498047	0.000457764	
6.39343	0.498047	0.000610352	
6.39374	0.500488	0.000610352	
6.39404	0.502625	-0.000305176	
6.39404	0.505676	0.00106812	
6.39465	0.506897	0.000152588	
6.39404	0.510254	0.000610352	
6.39343	0.512695	0.000610352	
6.39404	0.513306	0.000152588	
6.39374	0.515747	0.000457764	
6.39404	0.517578	0.000457764	
6.39435	0.520325	0.000457764	
6.39374	0.521851	0.000457764	
6.39374	0.522766	-0.000152588	
6.39404	0.524902	0.0012207	
6.39374	0.526733	0.000305176	
6.39465	0.527039	-0.000152588	
6.39374	0.53009	0.000152588	
6.39343	0.531616	0.000305176	
6.39374	0.534973	0.000457764	
6.39404	0.536804	0.000152588	
6.39404	0.537109	0.000457764	
6.39343	0.540161	0.000305176	
6.39404	0.541687	-0.000152588	
6.39465	0.542603	0.00106812	
6.39404	0.544739	0.000457764	
6.39404	0.546875	0.000457764	
6.39374	0.546875	0.000457764	
6.39404	0.54718	0.000305176	
6.39404	0.549622	0	
6.39374	0.551453	0.000152588	
6.39404	0.552368	0.000152588	
6.39374	0.55481	0.000305176	
6.39404	0.556641	-0.000305176	
6.39435	0.556641	0.00106812	
6.39374	0.556335	0.000610352	
6.39221	0.559998	0.000915527	
6.39008	0.560913	0.000610352	
6.38916	0.561523	0.000457764	
6.38916	0.561829	0.000610352	
6.38947	0.565186	0.000457764	
6.38916	0.566101	0.000305176	
6.38824	0.566711	0	
6.38855	0.566711	-0.000457764	
6.38885	0.568848	0.00106812	
6.38855	0.570374	0.000152588	
6.38855	0.570984	0.000305176	
6.38855	0.571289	0.000152588	
6.38916	0.571594	0.000457764	
6.38855	0.574341	0.000610352	
6.38947	0.576172	0.000610352	
6.38885	0.577087	0.000457764	
6.38885	0.576172	0.000457764	
6.38885	0.576172	-0.000305176	
6.38885	0.579224	0.00106812	
6.38855	0.58075	-0.000152588	
6.38885	0.581055	0.000457764	
6.38916	0.581665	0.000152588	
6.38916	0.58136	0.000457764	
6.38885	0.58136	0.000152588	
6.38916	0.58136	0.000152588	
6.38855	0.583801	0	
6.38916	0.585632	0.000610352	
6.38885	0.586548	0	
6.38885	0.586548	0.0012207	
6.38916	0.585938	0.000305176	
6.38855	0.585938	0.000457764	
6.38885	0.586243	0.000457764	
6.38885	0.585938	0.000610352	
6.38885	0.588684	0.000152588	
6.38885	0.59021	0.000305176	
6.38916	0.591431	0.000305176	
6.38916	0.592041	0.000152588	
6.38885	0.591431	-0.000305176	
6.38885	0.591125	0.000762939	
6.38885	0.59082	0.000457764	
6.38733	0.591431	0.000610352	
6.38428	0.591736	0.000457764	
6.38428	0.59082	0.000762939	
6.38397	0.591125	0.000915527	
6.38428	0.59082	0.000305176	
6.38428	0.59082	0.000610352	
6.38397	0.593872	0	
6.38367	0.596313	-0.000457764	
6.38367	0.596008	0.000915527	
6.38428	0.596008	0.000305176	
6.38367	0.596008	0.000457764	
6.38428	0.596008	0.000305176	
6.38367	0.596008	0.000152588	
6.38428	0.596008	0.000762939	
6.38428	0.596008	0.000610352	
6.38367	0.596313	0.000610352	
6.38428	0.595703	0.000305176	
6.38397	0.595703	-0.000305176	
6.38489	0.596008	0.0012207	
6.38397	0.595703	0.000305176	
6.38397	0.595703	0.000152588	
6.38367	0.596313	0.000152588	
6.38428	0.596313	0.000305176	
6.38428	0.595398	0.000305176	
6.38336	0.596313	0.000762939	
6.38397	0.596008	0.000152588	
6.38428	0.595703	0.000457764	
6.38397	0.596008	-0.000305176	
6.38397	0.593567	0.00106812	
6.38397	0.591431	0.000305176	
6.38428	0.59082	0.000457764	
6.38458	0.591431	0.000457764	
6.38458	0.591431	0.000610352	
6.38123	0.591431	0.000152588	
6.38031	0.59082	0.000457764	
6.37878	0.591431	0.000305176	
6.37878	0.591431	0.000305176	
6.37939	0.59082	-0.000457764	
6.37848	0.591431	0.000915527	
6.37909	0.591125	0.000457764	
6.37878	0.59082	0.000305176	
6.37848	0.591736	0.000915527	
6.37909	0.588074	0.000457764	
6.37878	0.587158	0.000305176	
6.37939	0.585632	0.000305176	
6.37909	0.586243	0.000305176	
6.37939	0.585938	0.000152588	
6.3797	0.585938	-0.000610352	
6.37939	0.586548	0.0012207	
6.37909	0.586548	0.000305176	
6.37848	0.586853	0.000457764	
6.37909	0.583191	0.000305176	
6.37878	0.581055	0.000610352	
6.37909	0.58136	0.000610352	
6.37909	0.581665	0.000610352	
6.37909	0.58136	0.000610352	
6.37939	0.58136	0.000457764	
6.37939	0.581055	-0.000457764	
6.37909	0.578918	0.0012207	
6.37909	0.576782	0.000305176	
6.37878	0.576477	0.000152588	
6.37665	0.576172	0.000457764	
6.37482	0.576477	0.000457764	
6.37421	0.576782	0.000305176	
6.3739	0.576477	0.000152588	
6.37451	0.57373	0.000152588	
6.3736	0.571594	0.000457764	
6.37421	0.571899	-0.000305176	
6.37421	0.571594	0.00106812	
6.37482	0.570984	0.000762939	
6.37451	0.568848	0.000610352	
6.37451	0.567017	0.000610352	
6.3739	0.566406	0.000457764	
6.37421	0.566406	0.000152588	
6.37421	0.565796	0	
6.3739	0.56366	0	
6.3736	0.562134	0.000610352	
6.3739	0.561829	-0.000305176	
6.3739	0.561829	0.00106812	
6.3739	0.560913	0.000457764	
6.37451	0.558777	0.000915527	
6.37421	0.557251	0.000457764	
6.37421	0.557251	0.000762939	
6.37421	0.557251	0.000457764	
6.37451	0.554199	0.000610352	
6.37421	0.552063	0.000457764	
6.37421	0.551453	0.000152588	
6.3739	0.551758	-0.000610352	
6.37207	0.551453	0.000915527	
6.37024	0.549011	0.000457764	
6.36841	0.54718	0.000152588	
6.36932	0.54718	0.000610352	
6.36932	0.54718	0.000610352	
6.36871	0.544128	0.000915527	
6.36871	0.542297	0.000915527	
6.36871	0.542297	0.000610352	
6.36932	0.53894	0.000152588	
6.36963	0.53772	-0.000152588	
6.36932	0.537109	0.00106812	
6.36871	0.537109	0.000152588	
6.36902	0.534058	0.000152588	
6.36902	0.532227	0	
6.36902	0.532227	0.000305176	
6.36932	0.531616	0.000457764	
6.36932	0.529175	0.000305176	
6.36932	0.527649	0.000305176	
6.36841	0.527039	0.000457764	
6.36871	0.524292	0	
6.36932	0.523071	0.00106812	
6.36902	0.522461	0.000457764	
6.36932	0.522156	0.000305176	
6.36902	0.52002	0.000457764	
6.36688	0.517578	0.000152588	
6.36505	0.516663	0.000305176	
6.36383	0.514526	0.000152588	
6.36383	0.51239	-0.000152588	
6.36414	0.51239	0.000305176	
6.36414	0.509949	-0.000305176	
6.36414	0.508118	0.000915527	
6.36475	0.507202	0.000457764	
6.36414	0.504456	0.000762939	
6.36414	0.502319	0.000762939	
6.36414	0.50293	0.000457764	
6.36475	0.499573	0.000152588	
6.36414	0.498352	0.000610352	
6.36383	0.497742	0.000305176	
6.36444	0.494995	0.000305176	
6.36383	0.493164	-0.000610352	
6.36383	0.492554	0.000915527	
6.36383	0.489807	0.000305176	
6.36444	0.488892	0.000305176	
6.36414	0.487976	0.000152588	
6.36414	0.484924	0.000305176	
6.36383	0.483704	0.000762939	
6.36414	0.483704	0.000762939	
6.362	0.480042	0.000610352	
6.36047	0.478516	0.000457764	
6.35925	0.4776	-0.000610352	
6.35895	0.475159	0.0012207	
6.35925	0.473938	0.000305176	
6.35925	0.472717	0.000152588	
6.35895	0.470886	0.000152588	
6.35864	0.46875	0.000457764	
6.35925	0.468445	0.000152588	
6.35895	0.465393	0.000152588	
6.35895	0.464172	0.000457764	
6.35956	0.46051	0.000305176	
6.35925	0.458984	-0.000152588	
6.35895	0.458374	0.000762939	
6.35864	0.456238	0.000152588	
6.35864	0.454407	0.000457764	
6.35925	0.454102	0.000305176	
6.35956	0.450745	0.000610352	
6.35925	0.449524	0.000152588	
6.35925	0.448608	0.000152588	
6.35925	0.445557	0.000152588	
6.35895	0.444031	0.000305176	
6.35864	0.440979	-0.000610352	
6.35681	0.439148	0.00106812	
6.35468	0.439453	0.000152588	
6.35437	0.436096	0.000915527	
6.35437	0.435181	0.000457764	
6.35468	0.43457	0.000610352	
6.35498	0.430603	0.000305176	
6.35406	0.429688	0.000305176	
6.35406	0.426941	0.000457764	
6.35437	0.424805	0.000305176	
6.35406	0.424194	-0.000152588	
6.35406	0.422363	0.00137329	
6.35406	0.419922	0.000305176	
6.35345	0.416565	0.000610352	
6.35437	0.414429	0.000915527	
6.35437	0.414124	0.000305176	
6.35437	0.412292	0.000762939	
6.35376	0.409546	0.000457764	
6.35468	0.409546	0.000457764	
6.35376	0.406494	0.000610352	
6.35376	0.404358	-0.000305176	
6.35345	0.401611	0.0012207	
6.35254	0.399475	0.000457764	
6.34979	0.39917	0.000152588	
6.34918	0.397339	0	
6.34949	0.395203	0.000762939	
6.3501	0.392151	0.000305176	
6.34918	0.39093	0.000305176	
6.34949	0.39032	0.000457764	
6.34918	0.387268	0.000610352	
6.34918	0.385437	-0.000152588	
6.34888	0.382385	0.00137329	
6.34857	0.380859	0.000457764	
6.34857	0.379944	0.000152588	
6.34918	0.376892	0.000457764	
6.34949	0.375671	0.000457764	
6.34888	0.372314	0.000305176	
6.34979	0.370483	0	
6.34949	0.369568	0.000305176	
6.34888	0.367737	0.000152588	
6.34918	0.366516	-0.000152588	
6.34918	0.362549	0.000915527	
6.34979	0.360718	0.000457764	
6.34644	0.361328	0.000762939	
6.34521	0.358276	0.000305176	
6.34399	0.35614	0.000610352	
6.3443	0.355835	0.000457764	
6.34399	0.352783	0.000457764	
6.34491	0.351868	0.000305176	
6.3446	0.348206	0.000305176	
6.34369	0.34668	-0.000610352	
6.3443	0.345154	0.000915527	
6.34521	0.342712	0.000305176	
6.3446	0.341492	0.000305176	
6.34399	0.338135	0.000152588	
6.3443	0.336609	0.000457764	
6.34399	0.336609	0.000610352	
6.3443	0.333557	0.000610352	
6.3443	0.332031	0.000305176	
6.3446	0.328369	0.000457764	
6.3446	0.326843	-0.000152588	
6.3443	0.326538	0.00106812	
6.34369	0.322571	0.000457764	
6.34155	0.32135	0.000152588	
6.33972	0.318298	0.000152588	
6.34003	0.316162	0.000457764	
6.33972	0.315857	0.000152588	
6.33972	0.314026	0.000305176	
6.33942	0.31189	0.000457764	
6.33942	0.312195	0.000305176	
6.33942	0.308838	-0.000305176	
6.33972	0.307007	0.0012207	
6.33942	0.303955	0.000457764	
6.34033	0.302429	0.000457764	
6.33911	0.302124	0.000762939	
6.33881	0.298767	0.000610352	
6.33911	0.297241	0.000305176	
6.34003	0.294189	0.000152588	
6.33942	0.292969	0.000152588	
6.34003	0.290833	0.000152588	
6.33972	0.289001	-0.000457764	
6.33911	0.28717	0.000762939	
6.33972	0.28717	0.000762939	
6.33911	0.284424	0.000457764	
6.33636	0.282898	0.000915527	
6.33514	0.279541	0.000610352	
6.33392	0.27832	0.000457764	
6.33453	0.2771	0.000457764	
6.33453	0.274353	0.000457764	
6.33484	0.272827	0.000305176	
6.33453	0.271912	-0.000915527	
6.33453	0.26947	0.000915527	
6.33453	0.267639	0.000305176	
6.33453	0.267334	0	
6.33514	0.264893	0.000152588	
6.33453	0.263062	0.000152588	
6.33179	0.26001	0.000457764	
6.32965	0.258484	0.000305176	
6.32996	0.256653	0.000457764	
6.32965	0.254517	0.000762939	
6.32935	0.252686	-0.000305176	
6.32935	0.252991	0.0012207	
6.32965	0.250244	0.000152588	
6.32935	0.248108	0.000305176	
6.32996	0.248108	0.000152588	
6.32965	0.245056	0.000457764	
6.32935	0.242615	0.000305176	
6.32935	0.240173	0.000152588	
6.32965	0.238037	0.000457764	
6.32965	0.238037	0.000305176	
6.32965	0.235291	0	
6.32874	0.233154	0.0012207	
6.32996	0.233459	0.000610352	
6.32996	0.231018	0.000762939	
6.32965	0.229492	0.000457764	
6.32751	0.228271	0.000457764	
6.32507	0.225525	0	
6.32507	0.223694	0.000152588	
6.32446	0.223083	0.000152588	
6.32507	0.220337	0.000305176	
6.32477	0.218506	-0.000305176	
6.32477	0.218506	0.000915527	
6.32477	0.216064	0	
6.32446	0.213623	0.000762939	
6.32507	0.213623	0.000762939	
6.32477	0.210876	0.000610352	
6.32538	0.209961	0.000152588	
6.32507	0.20813	0.000610352	
6.32538	0.205688	0.000305176	
6.32446	0.204163	0.000305176	
6.32477	0.203247	-0.000610352	
6.32477	0.201111	0.000915527	
6.32477	0.19928	0.000152588	
6.32416	0.198669	0.000305176	
6.32446	0.19928	0.000457764	
6.32477	0.196228	0.000457764	
6.32507	0.194397	0.000457764	
6.32446	0.194092	0.000457764	
6.32263	0.191345	0.000457764	
6.32111	0.189209	0.000305176	
6.31989	0.188293	-0.000610352	
6.31989	0.186157	0.00106812	
6.32019	0.184021	0.000610352	
6.3205	0.183411	0.000152588	
6.32019	0.180969	-0.000152588	
6.31989	0.179443	0.000152588	
6.32019	0.179443	0.000457764	
6.31989	0.176392	0.000152588	
6.32019	0.174255	0.000457764	
6.31989	0.174255	0.000610352	
6.31989	0.17395	-0.000305176	
6.3205	0.171204	0.00137329	
6.31958	0.169678	0.000305176	
6.31958	0.169678	0.000610352	
6.31714	0.166626	0.000762939	
6.31592	0.164795	0.000457764	
6.31531	0.164795	0.000305176	
6.315	0.164795	0.000152588	
6.31531	0.161743	0.000152588	
6.31531	0.159302	0.000305176	
6.31592	0.159302	-0.000457764	
6.315	0.156555	0.000915527	
6.315	0.155334	0.000457764	
6.31409	0.155334	0.000457764	
6.31439	0.155029	0.000762939	
6.31531	0.151672	0.000610352	
6.3147	0.150757	0.000457764	
6.3147	0.149231	0.000610352	
6.315	0.1474	0.000610352	
6.315	0.145569	0.000152588	
6.3147	0.144958	-0.000457764	
6.315	0.144958	0.000610352	
6.31561	0.141907	0.000762939	
6.3147	0.139771	0.000457764	
6.31195	0.140076	0.000305176	
6.31104	0.140686	0.000152588	
6.31012	0.137939	0.000762939	
6.31042	0.135498	0.000610352	
6.31042	0.135193	0.000305176	
6.31042	0.135803	0.000305176	
6.31042	0.131531	-0.000152588	
6.30951	0.13031	0.0012207	
6.31012	0.130005	0.000610352	
6.31042	0.13031	0.000152588	
6.30981	0.127563	0.000305176	
6.30981	0.125732	0.000305176	
6.31012	0.125122	0.000457764	
6.31012	0.125732	0.000152588	
6.31012	0.122986	0.000457764	
6.31042	0.12085	0.000457764	
6.31012	0.120239	-0.000305176	
6.30798	0.121155	0.00137329	
6.30615	0.118103	0.000305176	
6.30524	0.115967	0.000305176	
6.30585	0.115356	0.000457764	
6.30554	0.115051	0.000457764	
6.30554	0.112915	0.000152588	
6.30524	0.110779	0.000152588	
6.30524	0.110474	0.000457764	
6.30524	0.110474	0.000152588	
6.30554	0.107422	-0.000610352	
6.30524	0.105896	0.000762939	
6.30585	0.104675	0.000305176	
6.30554	0.105591	0.000610352	
6.30554	0.105896	0.000915527	
6.30524	0.103149	0.000762939	
6.30524	0.101624	0.000305176	
6.3028	0.101318	0.000305176	
6.30127	0.101013	0.000152588	
6.30066	0.0985718	0.000305176	
6.30035	0.0964355	-0.000610352	
6.30035	0.09552	0.000915527	
6.30096	0.0958252	0.000457764	
6.30066	0.0961304	0.000305176	
6.30066	0.0933838	0.000305176	
6.30005	0.0915527	0.000305176	
6.30066	0.0909424	0.000610352	
6.30035	0.0912476	0.000457764	
6.30035	0.0878906	0.000610352	
6.30096	0.0863647	0.000305176	
6.30066	0.0863647	-0.000305176	
6.30066	0.085144	0.00106812	
6.2973	0.0860596	0.000457764	
6.29608	0.083313	0.000305176	
6.29578	0.0811768	0.000305176	
6.29578	0.0814819	0.000305176	
6.29517	0.0802612	0	
6.29486	0.0814819	0	
6.29486	0.0793457	0.000305176	
6.29486	0.0775146	0.000305176	
6.29578	0.0769043	-0.000305176	
6.29517	0.0765991	0.0012207	
6.29578	0.0772095	0.000305176	
6.29517	0.0732422	0.000457764	
6.29578	0.0732422	0.000457764	
6.29547	0.0717163	0	
6.29547	0.0720215	0.000305176	
6.29272	0.0720215	0.000152588	
6.2915	0.0692749	0	
6.29059	0.0671387	0.000305176	
6.29059	0.0668335	-0.000762939	
6.28998	0.0665283	0.00106812	
6.29089	0.0671387	0.000305176	
6.29028	0.0650024	0.000152588	
6.29059	0.0622559	0.000457764	
6.29028	0.0619507	0.000457764	
6.29059	0.0619507	0.000610352	
6.29089	0.0619507	0.000610352	
6.29089	0.0619507	0.000915527	
6.29028	0.0595093	0	
6.28998	0.0576782	-0.000152588	
6.28784	0.0579834	0.00106812	
6.28662	0.0570679	0.000152588	
6.2851	0.057373	0.000457764	
6.28571	0.0546265	0.000305176	
6.28571	0.0518799	0.000305176	
6.2854	0.0521851	0.000610352	
6.2854	0.0518799	0.000457764	
6.28479	0.0524902	0.000457764	
6.2854	0.0521851	0.000457764	
6.28571	0.0494385	-0.000152588	
6.2854	0.0482178	0.00137329	
6.2854	0.0466919	0.000305176	
6.2854	0.0476074	0	
6.28357	0.0469971	0.000152588	
6.28143	0.0479126	0.000305176	
6.28052	0.0448608	0.000305176	
6.28082	0.0427246	0.000305176	
6.28082	0.0430298	0.000305176	
6.28052	0.0424194	0.000457764	
6.28052	0.0427246	-0.000305176	
6.28052	0.0427246	0.00106812	
6.28082	0.0402832	0.000457764	
6.28082	0.038147	0.000457764	
6.28021	0.0375366	0.000457764	
6.28143	0.0375366	0.000305176	
6.27777	0.0375366	0.000305176	
6.27625	0.0375366	0.000305176	
6.27625	0.0350952	0.000305176	
6.27563	0.0326538	0.000152588	
6.27563	0.0323486	-0.000152588	
6.27563	0.0323486	0.000762939	
6.27502	0.0323486	0.000305176	
6.27533	0.0326538	0.000915527	
6.27563	0.0305176	0.000610352	
6.27563	0.027771	0.000457764	
6.27563	0.027771	0.000457764	
6.27594	0.027771	0.000152588	
6.2738	0.0274658	0.000457764	
6.27167	0.027771	0.000457764	
6.27106	0.0250244	-0.000610352	
6.27075	0.0238037	0.000610352	
6.26984	0.0231934	0.000305176	
6.27075	0.022583	0.000305176	
6.27106	0.0228882	0.000152588	
6.27136	0.0228882	0.000152588	
6.27075	0.0201416	0.000915527	
6.27075	0.0183105	0.000457764	
6.27075	0.0183105	0.000305176	
6.26801	0.0180054	0.000457764	
6.26648	0.0170898	-0.000305176	
6.26648	0.0180054	0.00106812	
6.26648	0.015564	0.000305176	
6.26587	0.0140381	0.000305176	
6.26587	0.0131226	0.000152588	
6.26617	0.0134277	0.000457764	
6.26587	0.0131226	0.000457764	
6.26648	0.0134277	0.000305176	
6.26587	0.010376	0.000305176	
6.26526	0.00854492	0.000457764	
6.26404	0.00793457	-0.000152588	
6.26099	0.00854492	0.000915527	
6.26099	0.00762939	0.000457764	
6.26038	0.00854492	0.000152588	
6.26129	0.00579834	0.000610352	
6.26068	0.00305176	0.000610352	
6.2616	0.00305176	0.000305176	
6.26038	0.00366211	0.000305176	
6.26038	0.00305176	0.000305176	
6.26129	0.00244141	0.000305176	
6.26038	0.000305176	-0.000610352	
6.25854	-0.0012207	0.000915527	
6.25641	-0.00152588	0.000457764	
6.2561	-0.000915527	0.000610352	
6.2558	-0.0012207	0.000610352	
6.25519	-0.00183105	0.000610352	
6.25549	-0.00427246	0.000305176	
6.2561	-0.00518799	0	
6.2558	-0.00610352	0.000457764	
6.2561	-0.00671387	0.000152588	
6.2558	-0.00610352	-0.000457764	
6.25488	-0.00640869	0.000915527	
6.25549	-0.00915527	0.000305176	
6.2558	-0.0106812	0.000305176	
6.25427	-0.0109863	0.000457764	
6.25153	-0.0115967	0.000610352	
6.24878	-0.0119019	0.000610352	
6.24634	-0.0112915	0.000457764	
6.24634	-0.0140381	0.000610352	
6.24634	-0.0164795	0.000305176	
6.24603	-0.0161743	-0.000305176	
6.24634	-0.0161743	0.00106812	
6.24634	-0.0164795	0.000457764	
6.24603	-0.0167847	0.000152588	
6.24634	-0.0192261	0.000152588	
6.2439	-0.0204468	0.000305176	
6.24176	-0.0210571	0.000610352	
6.24115	-0.0210571	0	
6.24084	-0.0216675	0.000152588	
6.24115	-0.0213623	0.000457764	
6.24146	-0.0241089	-0.000610352	
6.24115	-0.0253296	0.00106812	
6.24084	-0.0262451	0.000457764	
6.24054	-0.0259399	0.000457764	
6.2384	-0.0259399	0.000610352	
6.23657	-0.0256348	0.000457764	
6.23657	-0.0292969	0.000305176	
6.23566	-0.0308228	-0.000152588	
6.23596	-0.0311279	0.000457764	
6.23657	-0.0308228	0.000305176	
6.23657	-0.0305176	-0.000610352	
6.23688	-0.0311279	0.0012207	
6.23596	-0.0335693	0.000152588	
6.23383	-0.0350952	0.000610352	
6.23199	-0.0357056	0.000610352	
6.23138	-0.0354004	0.000457764	
6.23108	-0.0360107	0.000305176	
6.23047	-0.0357056	0.000610352	
6.23169	-0.0384521	0.000610352	
6.23077	-0.039978	0.000305176	
6.23077	-0.0402832	-0.000610352	
6.22925	-0.0402832	0.000915527	
6.22681	-0.0408936	0.000152588	
6.2262	-0.0408936	0.000152588	
6.2262	-0.0436401	0.000610352	
6.22559	-0.0457764	0.000305176	
6.22681	-0.045166	0.000457764	
6.2265	-0.0457764	0.000610352	
6.2262	-0.0457764	0.000610352	
6.22406	-0.0488281	0.000305176	
6.22253	-0.050354	-0.000457764	
6.22131	-0.0500488	0.000762939	
6.22131	-0.0509644	0.000457764	
6.22101	-0.050354	0.000152588	
6.22101	-0.0506592	0	
6.22162	-0.0534058	0.000152588	
6.22162	-0.055542	0.000457764	
6.21918	-0.0549316	0.000305176	
6.21704	-0.0549316	0.000305176	
6.21643	-0.0558472	0.000762939	
6.21643	-0.0558472	-0.000305176	
6.21582	-0.0576782	0.0012207	
6.21643	-0.0598145	0.000610352	
6.21613	-0.0604248	0.000610352	
6.21613	-0.0601196	0.000457764	
6.21399	-0.0604248	0.000610352	
6.21277	-0.06073	0.000457764	
6.21124	-0.0631714	0.000152588	
6.21155	-0.0643921	0.000915527	
6.21124	-0.0653076	0.000305176	
6.21185	-0.0656128	-0.000152588	
6.21155	-0.0656128	0.000610352	
6.20972	-0.067749	0.000762939	
6.20667	-0.0701904	0.000457764	
6.20667	-0.0704956	0.000610352	
6.20636	-0.0695801	0.000305176	
6.20636	-0.0698853	0.000457764	
6.20636	-0.0704956	0.000762939	
6.20758	-0.0732422	0.000152588	
6.20392	-0.0750732	0.000152588	
6.20148	-0.0753784	-0.000762939	
6.20148	-0.0753784	0.000762939	
6.20117	-0.0747681	0.000762939	
6.20148	-0.0753784	0	
6.20148	-0.078125	0.000305176	
6.20117	-0.0796509	0.000152588	
6.19843	-0.0802612	0.000457764	
6.1972	-0.0796509	0.000457764	
6.19659	-0.0796509	0.000610352	
6.19629	-0.083313	0.000457764	
6.1972	-0.0845337	-0.000610352	
6.1969	-0.0848389	0.00106812	
6.19659	-0.085144	0.000762939	
6.19415	-0.0848389	0	
6.19263	-0.085144	0.000305176	
6.19171	-0.0872803	0.000305176	
6.19232	-0.0894165	0.000152588	
6.19171	-0.0897217	0	
6.19202	-0.0900269	0.000610352	
6.19202	-0.0900269	0.000152588	
6.18927	-0.0900269	-0.000152588	
6.18744	-0.0933838	0.00106812	
6.18652	-0.0942993	0.000305176	
6.18622	-0.0949097	0.000305176	
6.18683	-0.0942993	0.000305176	
6.18713	-0.0952148	0.000610352	
6.18378	-0.0967407	0.000305176	
6.18225	-0.100098	0.000152588	
6.18225	-0.0994873	0.000305176	
6.18164	-0.100403	0.000305176	
6.18103	-0.0997925	-0.000457764	
6.18164	-0.0997925	0.00106812	
6.18195	-0.102539	0.000305176	
6.1792	-0.104065	0.000457764	
6.17676	-0.10437	0.000762939	
6.17676	-0.10437	0.000457764	
6.17645	-0.10437	0.000305176	
6.17645	-0.104675	0.000610352	
6.17676	-0.106812	0.000457764	
6.17676	-0.109253	0.000762939	
6.17706	-0.109863	-0.000610352	
6.17615	-0.109558	0.000762939	
6.17432	-0.108948	0.000457764	
6.17279	-0.109253	0.000305176	
6.17249	-0.112	0.000457764	
6.17188	-0.113831	0.000152588	
6.17188	-0.113831	0.000152588	
6.17188	-0.114136	0.000610352	
6.16943	-0.114136	0.000305176	
6.1673	-0.117188	0.000152588	
6.16699	-0.119019	0	
6.1676	-0.119019	0.000762939	
6.16669	-0.119629	0.000457764	
6.1673	-0.119324	0.000152588	
6.16455	-0.119629	0.000305176	
6.16302	-0.122681	0.000152588	
6.16211	-0.123596	0.000457764	
6.16241	-0.124512	0.000762939	
6.16211	-0.124207	0.000305176	
6.16211	-0.124207	0.000152588	
6.15997	-0.124512	-0.000152588	
6.15753	-0.126648	0.0012207	
6.15753	-0.128479	0.000457764	
6.15631	-0.129089	0.000305176	
6.15631	-0.128784	0.000305176	
6.15479	-0.128784	0.000457764	
6.15295	-0.129089	0	
6.15265	-0.131226	0.000152588	
6.15234	-0.133667	0.000152588	
6.15234	-0.134277	0	
6.15204	-0.134277	-0.000457764	
6.15051	-0.133972	0.00106812	
6.14807	-0.133667	0.000152588	
6.14746	-0.137329	0.000457764	
6.14777	-0.137939	0.000457764	
6.14716	-0.138855	0.000305176	
6.14532	-0.137939	0.000457764	
6.14349	-0.139465	0.000457764	
6.14319	-0.138855	0.000610352	
6.14349	-0.141602	0.000152588	
6.14197	-0.143433	-0.000305176	
6.14258	-0.144043	0.0012207	
6.13983	-0.143433	0	
6.13739	-0.143738	0.000610352	
6.1377	-0.143433	0.000305176	
6.1377	-0.143738	0.000305176	
6.13708	-0.146484	0.000610352	
6.13556	-0.1474	0.000610352	
6.13342	-0.148926	0.000762939	
6.13281	-0.148926	0	
6.13251	-0.148621	-0.000152588	
6.1319	-0.14801	0.00106812	
6.13037	-0.151062	0.000457764	
6.12823	-0.153198	0.000152588	
6.12793	-0.153503	0	
6.12823	-0.154114	0.000152588	
6.12762	-0.153809	0.000152588	
6.12549	-0.153809	0.000457764	
6.12366	-0.15625	0.000457764	
6.12335	-0.158386	0.000305176	
6.12305	-0.158997	-0.000152588	
6.12244	-0.157776	0.00137329	
6.12061	-0.158691	0.000610352	
6.11877	-0.158081	0.000457764	
6.11816	-0.158691	0	
6.11725	-0.160828	0.000762939	
6.11755	-0.162659	0.000152588	
6.11542	-0.163574	0.000152588	
6.11267	-0.163879	0.000152588	
6.11328	-0.163269	0.000152588	
6.11267	-0.163574	-0.000152588	
6.11298	-0.16571	0.00106812	
6.11115	-0.167847	0.000610352	
6.1087	-0.168152	0.000915527	
6.10748	-0.167236	0.000762939	
6.1084	-0.168457	0.000610352	
6.10779	-0.168152	0	
6.10535	-0.167847	0.000762939	
6.10413	-0.170593	0.000305176	
6.10321	-0.172424	0.000305176	
6.10291	-0.173035	-0.000610352	
6.10107	-0.17334	0.0012207	
6.09863	-0.173035	0.000457764	
6.09833	-0.172119	0.000305176	
6.09741	-0.17334	0	
6.09802	-0.175781	0.000305176	
6.09589	-0.177917	0.000610352	
6.09375	-0.178223	0.000762939	
6.09314	-0.178528	0.000305176	
6.09344	-0.178223	0.000610352	
6.091	-0.178223	-0.000152588	
6.08917	-0.178223	0.0012207	
6.08826	-0.180969	0.000305176	
6.08826	-0.1828	0.000305176	
6.08795	-0.182495	0	
6.08673	-0.1828	0.000305176	
6.08398	-0.1828	0.000152588	
6.08307	-0.1828	0	
6.08276	-0.185547	0.000457764	
6.08307	-0.187683	0.000152588	
6.08398	-0.187683	0.000152588	
6.08276	-0.187683	0.00106812	
6.08337	-0.187683	0.000457764	
6.08337	-0.187683	0.000305176	
6.08246	-0.187683	0.000305176	
6.08246	-0.187988	0.000305176	
6.08398	-0.19043	0.000152588	
6.08307	-0.192261	0	
6.08368	-0.192566	0.000457764	
6.08276	-0.192566	0.000305176	
6.08276	-0.19165	-0.000457764	
6.08276	-0.192871	0.00106812	
6.08307	-0.192261	0	
6.08337	-0.195313	0.000610352	
6.08276	-0.196838	0.000762939	
6.08276	-0.197144	0.000762939	
6.08337	-0.197449	0	
6.08398	-0.198059	0.000457764	
6.07147	-0.197754	0.000457764	
6.06171	-0.197754	0.000457764	
6.05865	-0.2005	-0.000152588	
6.05621	-0.202332	0.000915527	
6.05347	-0.202637	0.000305176	
6.05408	-0.202332	0.000305176	
6.05316	-0.202332	0.000305176	
6.05164	-0.202332	0.000152588	
6.04889	-0.202942	0.000305176	
6.04889	-0.205383	0.000610352	
6.04889	-0.207825	0.000305176	
6.04614	-0.20752	0.000457764	
6.04401	-0.207825	-0.000305176	
6.0437	-0.20752	0.000915527	
6.0437	-0.207214	0.000457764	
6.04126	-0.207214	0.000152588	
6.03943	-0.20752	0.000152588	
6.03912	-0.210571	0.000305176	
6.03851	-0.212097	0.000610352	
6.03729	-0.213013	0.000152588	
6.03516	-0.212097	0.000152588	
6.03363	-0.212402	0.000457764	
6.03333	-0.212402	-0.000305176	
6.0318	-0.212097	0.0012207	
6.02875	-0.212402	0.000610352	
6.02936	-0.214539	0.000305176	
6.02814	-0.21759	0.000457764	
6.02661	-0.21698	0.000610352	
6.02448	-0.21698	0.000305176	
6.02386	-0.216675	-0.000152588	
6.02356	-0.21698	0.000610352	
6.02173	-0.217285	0.000457764	
6.01959	-0.21759	-0.000457764	
6.01868	-0.220032	0.0012207	
6.01898	-0.221863	0.000610352	
6.01715	-0.222473	0.000762939	
6.01471	-0.221558	0.000457764	
6.0141	-0.222168	0.000762939	
6.01196	-0.222778	0.000152588	
6.01013	-0.221863	0.000457764	
6.00861	-0.221863	0.000610352	
6.00922	-0.224915	0.000152588	
6.00647	-0.22644	-0.000152588	
6.00494	-0.22644	0.00106812	
6.00433	-0.227356	0.000762939	
6.00372	-0.227051	0.000305176	
6.0025	-0.227356	0.000457764	
6.00006	-0.227356	0.000762939	
5.99915	-0.227051	0.000457764	
5.99701	-0.230103	0.000762939	
5.99487	-0.231323	0.000762939	
5.99487	-0.231628	0.000305176	
5.99457	-0.232544	-0.000305176	
5.99243	-0.231628	0.0012207	
5.98999	-0.231934	0.000457764	
5.98907	-0.232544	0.000305176	
5.98663	-0.231934	0.000152588	
5.98511	-0.232544	0.000457764	
5.9845	-0.234375	0	
5.98419	-0.236511	0	
5.98206	-0.237122	0.000305176	
5.97961	-0.236816	0.000152588	
5.97961	-0.237122	-0.000305176	
5.97717	-0.236206	0.0012207	
5.97473	-0.237122	0.000305176	
5.97473	-0.236511	0.000457764	
5.97198	-0.236511	0.000305176	
5.96924	-0.236206	0.000457764	
5.97015	-0.239868	0.000152588	
5.96954	-0.241699	0.000305176	
5.96802	-0.241394	0.000457764	
5.96588	-0.24231	0.000457764	
5.96466	-0.241699	-0.000305176	
5.96283	-0.241089	0.0012207	
5.96069	-0.242004	0.000457764	
5.96008	-0.241699	0.000915527	
5.96008	-0.241699	0.000610352	
5.95795	-0.241394	0.000762939	
5.95551	-0.244446	0.000915527	
5.9552	-0.246277	0.000305176	
5.95215	-0.246582	0.000305176	
5.95093	-0.246582	0.000457764	
5.9494	-0.246582	-0.000305176	
5.94788	-0.246582	0.000915527	
5.94574	-0.247192	0.000152588	
5.94513	-0.246582	0	
5.9433	-0.246582	0.000305176	
5.94055	-0.246887	0.000305176	
5.94055	-0.249634	0.000762939	
5.93994	-0.250549	0.000915527	
5.93811	-0.25116	0.000762939	
5.93567	-0.251465	0.000610352	
5.93506	-0.25116	-0.000152588	
5.93292	-0.25116	0.000915527	
5.93018	-0.250854	0.000762939	
5.93048	-0.25177	0.000457764	
5.92773	-0.252075	0.000152588	
5.92682	-0.251465	0.000152588	
5.92529	-0.250854	0.000152588	
5.92346	-0.251465	0.000152588	
5.92133	-0.254211	0.000305176	
5.9201	-0.255432	0.000610352	
5.91827	-0.256042	-0.000152588	
5.91614	-0.256348	0.00137329	
5.91583	-0.256653	0.000457764	
5.91309	-0.255737	0.000305176	
5.91095	-0.256042	0.000152588	
5.91064	-0.256042	0.000305176	
5.90851	-0.256348	0.000305176	
5.90637	-0.256958	0	
5.90576	-0.256042	0.000152588	
5.90332	-0.255432	0.000610352	
5.90118	-0.259705	-0.000457764	
5.90057	-0.260925	0.00106812	
5.90057	-0.26123	0.000152588	
5.89874	-0.26062	0.000762939	
5.89661	-0.26123	0.000762939	
5.89569	-0.260925	0.000457764	
5.89294	-0.261841	0.000305176	
5.89142	-0.26123	0.000305176	
5.89081	-0.260925	0.000610352	
5.88867	-0.26062	0.000457764	
5.88623	-0.26123	-0.000305176	
5.88593	-0.261841	0.00106812	
5.88287	-0.260925	-0.000152588	
5.88135	-0.26123	0.000610352	
5.8783	-0.264282	0.000152588	
5.87616	-0.266113	0.000457764	
5.87616	-0.266724	0.000457764	
5.87433	-0.265808	0.000457764	
5.87128	-0.265808	0.000457764	
5.87036	-0.266113	0.00106812	
5.86914	-0.266418	-0.000457764	
5.8667	-0.266724	0.000915527	
5.86609	-0.265808	0.000457764	
5.86365	-0.266113	0.000457764	
5.86151	-0.265808	0	
5.8609	-0.266113	0.000152588	
5.85876	-0.266113	0.000152588	
5.85663	-0.266113	0.000305176	
5.85663	-0.265808	0.000305176	
5.85358	-0.268555	0.000305176	
5.85144	-0.271301	-0.000305176	
5.85144	-0.271301	0.0012207	
5.8493	-0.271606	0.000305176	
5.84656	-0.270691	0.000305176	
5.84656	-0.270691	0.000152588	
5.84412	-0.271606	0.000305176	
5.84229	-0.270996	0.000457764	
5.84167	-0.270996	0	
5.83893	-0.271301	0.000152588	
5.8374	-0.270691	0.000457764	
5.83496	-0.271301	-0.000305176	
5.83221	-0.271606	0.00106812	
5.83191	-0.270996	0.000457764	
5.82886	-0.270691	0.000762939	
5.82703	-0.270996	0.000610352	
5.82672	-0.270996	0.000457764	
5.82428	-0.270691	0.000762939	
5.82214	-0.273743	0.000457764	
5.82184	-0.275879	0.000762939	
5.8197	-0.276184	0.000610352	
5.81787	-0.276489	-0.000762939	
5.81787	-0.275879	0.000762939	
5.81451	-0.276184	0.000610352	
5.81238	-0.275879	0.000152588	
5.81024	-0.276489	0.000610352	
5.80719	-0.275879	0.000610352	
5.8075	-0.276184	0.000457764	
5.80444	-0.276184	0.000915527	
5.80261	-0.275879	0.000610352	
5.8017	-0.276184	0.000610352	
5.8017	-0.275879	-0.000152588	
5.8017	-0.275879	0.0012207	
5.802	-0.275879	0.000457764	
5.802	-0.275879	0.000305176	
5.79285	-0.275574	0	
5.78491	-0.275879	0.000152588	
5.78247	-0.275879	0.000305176	
5.78003	-0.276184	0.000152588	
5.77759	-0.278931	0	
5.77576	-0.280457	0.000305176	
5.77332	-0.281372	-0.000152588	
5.77301	-0.281067	0.00137329	
5.77026	-0.281067	0.000305176	
5.76813	-0.281067	0.000610352	
5.76691	-0.280762	0.000457764	
5.76569	-0.281372	0.000305176	
5.76324	-0.281067	0.000152588	
5.7605	-0.280762	0.000152588	
5.75836	-0.280457	0.000457764	
5.75745	-0.281067	0.000457764	
5.75562	-0.281067	0	
5.75317	-0.279846	0.00106812	
5.75073	-0.280762	0	
5.74829	-0.281372	0.000457764	
5.74768	-0.280457	0.000457764	
5.74554	-0.281067	0.000762939	
5.7428	-0.280762	0.000610352	
5.7431	-0.281067	0.000457764	
5.74036	-0.280762	0.000305176	
5.73944	-0.281067	0.000457764	
5.73578	-0.281067	-0.000305176	
5.73334	-0.281067	0.0012207	
5.73303	-0.280762	0.000457764	
5.73029	-0.281372	0.000305176	
5.72845	-0.281372	0.000457764	
5.72571	-0.281372	0.000305176	
5.72388	-0.283508	0.000152588	
5.72266	-0.285645	0.000305176	
5.72021	-0.286255	0.000457764	
5.71869	-0.285645	0.000152588	
5.71503	-0.28595	0.00137329	
5.71442	-0.285645	0.000457764	
5.71289	-0.28595	0.000457764	
5.71045	-0.285645	0.000152588	
5.70923	-0.28656	-0.000152588	
5.70618	-0.285645	0.000457764	
5.70435	-0.285645	0	
5.70343	-0.28595	0.000457764	
5.7016	-0.28595	0.000305176	
5.69916	-0.286255	-0.000305176	
5.69641	-0.285339	0.00106812	
5.69427	-0.28595	0.000610352	
5.69397	-0.286255	0.000305176	
5.69031	-0.285339	0.000152588	
5.69	-0.28595	0.000610352	
5.68573	-0.28595	0.000457764	
5.6839	-0.285645	0.000457764	
5.68298	-0.285645	-0.000152588	
5.68176	-0.28595	0.000152588	
5.67932	-0.285645	-0.000152588	
5.67627	-0.28595	0.00106812	
5.67474	-0.285339	0.000457764	
5.672	-0.28595	0.000152588	
5.66986	-0.28595	0.000610352	
5.66895	-0.28595	0.000610352	
5.6662	-0.285645	0.000305176	
5.66467	-0.28595	0.000610352	
5.66254	-0.28595	0.000610352	
5.65979	-0.285645	0.000457764	
5.65887	-0.286255	-0.000305176	
5.65643	-0.285645	0.00106812	
5.6543	-0.28595	0.000457764	
5.65155	-0.28656	0.000305176	
5.64972	-0.28595	0.000305176	
5.64728	-0.28595	0.000305176	
5.64484	-0.286255	0.000305176	
5.64484	-0.28595	0.000305176	
5.6424	-0.285339	0.000457764	
5.64026	-0.28595	0.000305176	
5.6369	-0.28595	-0.000305176	
5.63477	-0.28595	0.00106812	
5.63477	-0.285645	0.000457764	
5.63202	-0.28656	0.000457764	
5.62988	-0.286255	0.000305176	
5.62744	-0.286255	0	
5.625	-0.285645	0.000305176	
5.62195	-0.28595	0.000305176	
5.62012	-0.285645	0.000457764	
5.61981	-0.285645	0.000305176	
5.61768	-0.28595	-0.000457764	
5.61615	-0.28595	0.000915527	
5.61279	-0.28595	0.000457764	
5.61066	-0.28656	0.000457764	
5.60699	-0.28595	0.000457764	
5.60516	-0.285034	0.000457764	
5.60242	-0.285645	0.000152588	
5.60089	-0.285645	0.000152588	
5.59998	-0.28595	0.000152588	
5.59784	-0.286255	0.000610352	
5.5957	-0.285339	-0.000305176	
5.59265	-0.28595	0.0012207	
5.59082	-0.28595	0.000457764	
5.58838	-0.286255	0.000457764	
5.58563	-0.285645	0.000457764	
5.58502	-0.28595	0.000762939	
5.58289	-0.285645	0.000457764	
5.58075	-0.285339	0.000457764	
5.57831	-0.285339	0.000457764	
5.57617	-0.285645	0.000610352	
5.57343	-0.286255	0.000152588	
5.57068	-0.28595	0.00106812	
5.56824	-0.285645	0.000305176	
5.5658	-0.286255	0.000457764	
5.56549	-0.28595	0.000457764	
5.56519	-0.286255	0.000457764	
5.56519	-0.286255	0.000457764	
5.56519	-0.285645	0.000305176	
5.56458	-0.285645	0.000457764	
5.56519	-0.286255	0.000305176	
5.56488	-0.28595	-0.000305176	
5.56488	-0.286255	0.0012207	
5.56488	-0.28595	0.000610352	
5.56458	-0.28595	0.000610352	
5.56458	-0.28595	0.000152588	
5.5545	-0.28595	0.000152588	
5.54199	-0.28595	0.000152588	
5.5365	-0.28595	0.000152588	
5.53345	-0.285645	0.000305176	
5.53101	-0.285645	0.000305176	
5.52887	-0.285034	-0.000152588	
5.52612	-0.286255	0.0012207	
5.52429	-0.286255	0.000610352	
5.52155	-0.285645	0.000305176	
5.52063	-0.285645	0.000305176	
5.51849	-0.28595	0.000610352	
5.51666	-0.28595	0.000610352	
5.51422	-0.285645	0.000152588	
5.51208	-0.285034	0	
5.50903	-0.285645	0.000610352	
5.5069	-0.28595	-0.000610352	
5.50415	-0.285645	0.0012207	
5.50262	-0.285645	0.000305176	
5.49957	-0.285645	0.000610352	
5.49683	-0.28595	0.000457764	
5.49438	-0.28595	0.000915527	
5.49194	-0.285645	0.000762939	
5.49133	-0.28595	0.000457764	
5.4892	-0.285339	0.000457764	
5.48676	-0.28595	0.000457764	
5.48431	-0.285034	-0.000457764	
5.48218	-0.28595	0.0012207	
5.47943	-0.286255	0.000915527	
5.47699	-0.285645	0.000305176	
5.47485	-0.28595	0.000610352	
5.4715	-0.285645	0.000305176	
5.47089	-0.28595	0.000457764	
5.47119	-0.286255	0.000457764	
5.47119	-0.285339	0.000610352	
5.46936	-0.285645	0.000610352	
5.46753	-0.28595	-0.000152588	
5.46448	-0.285645	0.00106812	
5.46234	-0.285645	0.000915527	
5.46234	-0.286255	0.000305176	
5.45959	-0.286255	0.000152588	
5.45776	-0.285645	0	
5.45532	-0.282898	0.000457764	
5.45288	-0.281067	0.000457764	
5.44952	-0.281067	0.000305176	
5.44708	-0.281067	0.000457764	
5.44495	-0.281372	-0.000610352	
5.44281	-0.281372	0.0012207	
5.44006	-0.280762	0.000457764	
5.43732	-0.281372	0.000457764	
5.43488	-0.281372	0.000610352	
5.43213	-0.281372	0.000762939	
5.4303	-0.281067	0.000152588	
5.42847	-0.281677	0.000457764	
5.42542	-0.280762	0	
5.42297	-0.281372	0.000152588	
5.42236	-0.281067	-0.000152588	
5.42084	-0.280457	0.00106812	
5.41779	-0.280762	0.000610352	
5.41534	-0.280762	0.000305176	
5.4129	-0.280762	0.000610352	
5.41046	-0.281067	0.000915527	
5.40741	-0.280762	0.000305176	
5.40558	-0.280151	0.000305176	
5.40314	-0.281372	0.000610352	
5.40009	-0.281067	0.000457764	
5.39795	-0.280762	-0.000457764	
5.39551	-0.281372	0.000915527	
5.39276	-0.280457	0.000305176	
5.39032	-0.281372	0.000152588	
5.38818	-0.281067	0.000457764	
5.38513	-0.281067	0.000457764	
5.3833	-0.281067	0.000305176	
5.38025	-0.281067	0.000610352	
5.37872	-0.280151	0.000762939	
5.37567	-0.280457	0.000610352	
5.37354	-0.281372	-0.000152588	
5.37262	-0.280457	0.0012207	
5.37109	-0.281067	0.000762939	
5.36896	-0.280762	0.000762939	
5.36652	-0.280762	0.000305176	
5.36377	-0.281067	0	
5.36072	-0.280762	0.000305176	
5.35828	-0.280762	0	
5.35553	-0.281677	0.000305176	
5.35431	-0.280762	0.000457764	
5.35095	-0.27771	-0.000610352	
5.34882	-0.276489	0.00106812	
5.34668	-0.275269	0.000305176	
5.34363	-0.275574	0.000762939	
5.34149	-0.275574	0.000457764	
5.33936	-0.275574	0.000152588	
5.336	-0.275879	0.000305176	
5.33417	-0.276184	0.000305176	
5.33142	-0.276184	0.000152588	
5.32898	-0.276794	0.000305176	
5.32623	-0.276184	-0.000152588	
5.3241	-0.275879	0.00106812	
5.32379	-0.275879	0.000610352	
5.32166	-0.275879	0.000305176	
5.31891	-0.276184	0.000762939	
5.31586	-0.275879	0.000610352	
5.31403	-0.276184	0.000457764	
5.31158	-0.276489	0.000610352	
5.30975	-0.276184	0.000762939	
5.30701	-0.275879	0.000457764	
5.30426	-0.275574	-0.000457764	
5.30212	-0.275574	0.00106812	
5.29938	-0.276184	0.000457764	
5.29633	-0.276184	0	
5.2951	-0.275574	0.000457764	
5.29236	-0.276184	0.000610352	
5.28961	-0.276184	0.000457764	
5.28687	-0.276184	0.000457764	
5.28473	-0.276794	0.000610352	
5.28168	-0.275879	0.000305176	
5.27924	-0.275879	0	
5.27649	-0.275879	0.00106812	
5.27557	-0.275879	0.000305176	
5.27222	-0.275269	0.000457764	
5.27008	-0.276184	0.000457764	
5.26733	-0.275574	0	
5.26459	-0.276184	0.000305176	
5.26215	-0.275879	0.000152588	
5.26001	-0.273743	0.000305176	
5.25696	-0.272217	0.000457764	
5.25574	-0.270691	-0.000305176	
5.25177	-0.270691	0.00106812	
5.24994	-0.270996	0.000915527	
5.2475	-0.270691	0.000305176	
5.24506	-0.270386	0.000457764	
5.24414	-0.270691	0.000762939	
5.24231	-0.271301	0.000610352	
5.24048	-0.271606	0.000305176	
5.23804	-0.271301	0.000152588	
5.23529	-0.270996	0.000457764	
5.23285	-0.271606	-0.000152588	
5.23102	-0.270691	0.000915527	
5.22766	-0.270996	0.000457764	
5.22552	-0.271301	0.000610352	
5.22278	-0.271301	0.000305176	
5.22064	-0.271912	0.000915527	
5.2179	-0.270996	0.000457764	
5.21576	-0.270691	0.000457764	
5.21301	-0.271606	0.000610352	
5.21057	-0.270996	0.000457764	
5.20813	-0.270996	-0.000457764	
5.20599	-0.270996	0.00106812	
5.20386	-0.271606	0.000305176	
5.20111	-0.271301	0.000305176	
5.19867	-0.271301	0.000457764	
5.19623	-0.271301	0.000152588	
5.19348	-0.271301	0.000305176	
5.19073	-0.270691	0.000305176	
5.18829	-0.270691	0.000762939	
5.18616	-0.270996	0.000457764	
5.18372	-0.271301	0	
5.18158	-0.271301	0.00106812	
5.17853	-0.271301	0.000457764	
5.17578	-0.270691	0.000457764	
5.17365	-0.271606	0.000152588	
5.17151	-0.270691	0	
5.16846	-0.271301	0.000152588	
5.16663	-0.26825	0.000305176	
5.16418	-0.266113	0.000305176	
5.16113	-0.266724	0.000457764	
5.15869	-0.265808	-0.000305176	
5.15442	-0.266724	0.000915527	
5.15228	-0.266418	0.000762939	
5.14923	-0.265808	0.000762939	
5.14679	-0.265808	0.000457764	
5.14374	-0.267029	0.000610352	
5.14221	-0.265808	0.000152588	
5.13916	-0.266418	0	
5.13702	-0.265808	0	
5.13367	-0.266418	0.000305176	
5.13275	-0.266418	-0.000305176	
5.12878	-0.265808	0.0012207	
5.12604	-0.266724	0.000762939	
5.12451	-0.266113	0.000152588	
5.12238	-0.266113	0.000610352	
5.11963	-0.266113	0.000762939	
5.11688	-0.266113	0.000457764	
5.11444	-0.266418	0.000457764	
5.112	-0.265808	0.000610352	
5.10895	-0.266724	0.000457764	
5.10834	-0.266113	-0.000305176	
5.10437	-0.266113	0.00106812	
5.10315	-0.266418	0.000305176	
5.09918	-0.266113	0.000305176	
5.09674	-0.263367	0.000457764	
5.0946	-0.261536	0.000152588	
5.09003	-0.260925	0.000152588	
5.08789	-0.26123	0.000457764	
5.08453	-0.260925	0.000915527	
5.0824	-0.26123	0.000457764	
5.08026	-0.26123	-0.000457764	
5.07813	-0.262146	0.0012207	
5.07599	-0.260925	0.000610352	
5.07416	-0.261536	0.000457764	
5.07019	-0.261841	0.000305176	
5.06836	-0.261536	0	
5.06561	-0.260925	0.000152588	
5.06409	-0.261536	0.000457764	
5.06104	-0.260925	0.000457764	
5.05707	-0.26123	0.000457764	
5.05463	-0.257874	-0.000305176	
5.05096	-0.257263	0.00106812	
5.04913	-0.256042	0.000610352	
5.04608	-0.256042	0.000305176	
5.04303	-0.256042	0.000457764	
5.0412	-0.256042	0.000457764	
5.03906	-0.256653	0.000762939	
5.03601	-0.256653	0.000305176	
5.03326	-0.256653	0.000305176	
5.03113	-0.256958	0.000305176	
5.0293	-0.256958	-0.000305176	
5.02625	-0.256042	0.00106812	
5.02228	-0.253601	0.000610352	
5.01953	-0.252075	0.000152588	
5.01587	-0.25177	0.000457764	
5.01404	-0.251465	0.000457764	
5.01129	-0.251465	0.000305176	
5.00854	-0.251465	0.000152588	
5.00671	-0.251465	0.000305176	
5.00366	-0.252075	0.000610352	
5.00153	-0.248718	-0.000152588	
4.99725	-0.246277	0.0012207	
4.9942	-0.246887	0	
4.99176	-0.246582	0.000457764	
4.98932	-0.246277	0.000457764	
4.98596	-0.246582	0.000305176	
4.98413	-0.246582	0.000305176	
4.98199	-0.24353	0.000305176	
4.97955	-0.241394	0.000762939	
4.97681	-0.241699	0.000610352	
4.97314	-0.241394	-0.000305176	
4.96979	-0.241394	0.0012207	
4.96735	-0.241699	0.000610352	
4.96521	-0.238037	0.000610352	
4.96155	-0.237427	0.000305176	
4.95911	-0.236511	0	
4.95697	-0.235901	0	
4.9527	-0.236816	0.000457764	
4.95026	-0.236511	0.000305176	
4.9469	-0.233765	0.000457764	
4.94476	-0.232239	0	
4.94202	-0.232544	0.00137329	
4.93988	-0.231628	0.000457764	
4.93683	-0.229492	0.000457764	
4.935	-0.22644	0.000610352	
4.93225	-0.226746	0.000610352	
4.92798	-0.227051	0.000305176	
4.92523	-0.226746	0.000457764	
4.92249	-0.223999	0.000152588	
4.92004	-0.222168	0.000305176	
4.9173	-0.222473	-0.000305176	
4.91547	-0.222168	0.00106812	
4.91302	-0.219421	0.000762939	
4.90875	-0.217285	0.000152588	
4.9054	-0.21759	0.000457764	
4.90295	-0.214233	0.000610352	
4.90051	-0.212097	0.000457764	
4.89807	-0.212402	0.000457764	
4.89594	-0.212097	0.000610352	
4.89319	-0.209961	0.000610352	
4.88861	-0.207825	-0.000610352	
4.88556	-0.207214	0.00106812	
4.88342	-0.205078	0.000152588	
4.88159	-0.202332	0.000305176	
4.87823	-0.202637	0.000457764	
4.87427	-0.19989	0.000305176	
4.87091	-0.197754	0.000457764	
4.86847	-0.197449	0.000457764	
4.86664	-0.195313	0.000762939	
4.8642	-0.193176	0.000457764	
4.86145	-0.192871	-0.000152588	
4.85809	-0.189819	0.00137329	
4.85474	-0.187988	0.000152588	
4.85138	-0.187988	0.000457764	
4.84863	-0.184937	0.000610352	
4.8465	-0.183411	0	
4.84375	-0.179749	0	
4.84222	-0.178528	0.000457764	
4.84009	-0.178223	0.000152588	
4.841	-0.175171	0.000305176	
4.841	-0.17334	-0.000305176	
4.84039	-0.169983	0.00137329	
4.841	-0.168457	0.000762939	
4.84039	-0.168152	0.000457764	
4.8407	-0.1651	0.000610352	
4.82605	-0.163269	0.000457764	
4.8111	-0.160217	0.000610352	
4.80499	-0.158386	0.000457764	
4.79919	-0.155945	0.000305176	
4.79736	-0.153503	0.000457764	
4.79462	-0.153503	-0.000457764	
4.79218	-0.150757	0.00106812	
4.78943	-0.148926	0.000610352	
4.78577	-0.145264	0.000457764	
4.78119	-0.144043	0.000457764	
4.77936	-0.140076	0.000762939	
4.77753	-0.138855	0.000915527	
4.77478	-0.135803	0.000457764	
4.77264	-0.133972	0.000457764	
4.76959	-0.131226	0.000457764	
4.76563	-0.1297	-0.000152588	
4.76318	-0.126038	0.000915527	
4.75983	-0.123901	0.000152588	
4.75769	-0.12146	0.000457764	
4.75494	-0.116272	0.000305176	
4.75037	-0.114441	0.000152588	
4.74792	-0.111694	0.000610352	
4.74609	-0.109558	0.000457764	
4.74274	-0.106506	0.000762939	
4.73999	-0.10498	0.000457764	
4.73816	-0.102234	-0.000457764	
4.73633	-0.100098	0.00106812	
4.73053	-0.0967407	0.000610352	
4.72809	-0.0915527	0.000610352	
4.72504	-0.0894165	0.000457764	
4.7229	-0.0869751	0	
4.71985	-0.0848389	0.000305176	
4.71558	-0.0820923	0.000305176	
4.71344	-0.0775146	0.000457764	
4.71069	-0.0750732	0.000305176	
4.70825	-0.0723267	-0.000610352	
4.7052	-0.0701904	0.0012207	
4.70337	-0.0671387	0.000610352	
4.70032	-0.0631714	0.000610352	
4.69574	-0.06073	0.000610352	
4.6936	-0.0576782	0.000457764	
4.69086	-0.0524902	0.000610352	
4.68842	-0.0512695	0.000762939	
4.68597	-0.0473022	0.000152588	
4.6814	-0.0460815	0.000152588	
4.67804	-0.0430298	-0.000305176	
4.6759	-0.0384521	0.000915527	
4.67316	-0.0363159	0.000305176	
4.67072	-0.032959	0.000457764	
4.66644	-0.0286865	0.000762939	
4.66461	-0.0262451	0.000915527	
4.66125	-0.0234985	0.000762939	
4.65973	-0.0189209	0.000457764	
4.65607	-0.0167847	0.000762939	
4.65424	-0.0128174	0.000457764	
4.65149	-0.0088501	-0.000457764	
4.64661	-0.00396729	0.0012207	
4.64417	-0.00213623	0.000457764	
4.64142	0.0012207	0.000305176	
4.63867	0.00610352	0	
4.63623	0.00793457	0.000762939	
4.63196	0.0112915	0.000305176	
4.62921	0.0152588	0.000610352	
4.62677	0.017395	0.000915527	
4.62433	0.0213623	0.000610352	
4.62158	0.0247192	-0.000457764	
4.62006	0.0305176	0.00152588	
4.61639	0.0320435	0.000610352	
4.61212	0.0360107	0.000610352	
4.60968	0.0396729	0.000610352	
4.60693	0.0421143	0.000152588	
4.6051	0.0454712	0.000305176	
4.60205	0.0500488	0.000305176	
4.59747	0.0546265	0.000152588	
4.59503	0.0567627	0.000305176	
4.59229	0.0598145	0	
4.58954	0.0650024	0.000915527	
4.5874	0.0701904	0.000610352	
4.58435	0.0726318	0.000305176	
4.58282	0.0750732	0.000457764	
4.57794	0.0802612	0.000762939	
4.57581	0.083313	0.000610352	
4.57245	0.0863647	0	
4.57031	0.0891113	0	
4.56726	0.0930786	0.000152588	
4.56329	0.0982666	-0.000305176	
4.56055	0.100403	0.00106812	
4.5575	0.103455	0.000305176	
4.55536	0.108337	0.000610352	
4.5517	0.113525	0.000610352	
4.55078	0.115356	0.000915527	
4.54803	0.118713	0.000457764	
4.54315	0.123291	0.000610352	
4.54041	0.128479	0.000457764	
4.53796	0.1297	0.000305176	
4.53583	0.132446	0	
4.53339	0.137634	0.00106812	
4.52881	0.142822	0.000305176	
4.52606	0.1474	0.000305176	
4.52301	0.149231	0.000305176	
4.52057	0.153198	0.000457764	
4.51813	0.15686	0.000305176	
4.51599	0.162354	0.000305176	
4.51324	0.164185	0.000915527	
4.50897	0.166626	0.000457764	
4.50623	0.172119	-0.000152588	
4.50378	0.177307	0.00137329	
4.50165	0.178528	0.000610352	
4.4989	0.181885	0.000305176	
4.49646	0.186768	0.000610352	
4.4931	0.191345	0.000152588	
4.48914	0.193481	0.000305176	
4.48639	0.196838	0.000457764	
4.48364	0.201721	0	
4.48181	0.205994	0.000610352	
4.47937	0.20813	-0.000305176	
4.47662	0.211182	0.00106812	
4.47388	0.216064	0.000610352	
4.46991	0.221558	0.000457764	
4.46655	0.223083	0.000762939	
4.46442	0.227051	0.000305176	
4.46198	0.230408	0.000610352	
4.45862	0.235596	0.000457764	
4.45648	0.238037	0.000305176	
4.45435	0.240784	0.000610352	
4.44977	0.244751	-0.000457764	
4.44641	0.250854	0.00106812	
4.44366	0.252075	0.000610352	
4.44183	0.255432	0.000305176	
4.43939	0.26062	0.000610352	
4.43695	0.261841	0.000915527	
4.4342	0.265808	0.000762939	
4.42963	0.270081	0.000457764	
4.42749	0.274963	0.000762939	
4.42474	0.277405	0.000305176	
4.4223	0.279846	-0.000152588	
4.42017	0.284729	0.0012207	
4.41742	0.28656	0.000152588	
4.41498	0.289612	0.000152588	
4.40948	0.294189	0.000457764	
4.40735	0.299683	0.000610352	
4.40491	0.301514	0.000457764	
4.40277	0.304565	0.000610352	
4.40002	0.309143	0.000610352	
4.39667	0.311584	0.000762939	
4.39514	0.314636	-0.000457764	
4.39056	0.318604	0.00137329	
4.38782	0.320129	0.000457764	
4.38446	0.323792	0.000610352	
4.38263	0.328979	0	
4.38049	0.330811	0	
4.37866	0.334473	0	
4.375	0.33783	0.000610352	
4.37347	0.341187	0.000152588	
4.37042	0.344238	0.000305176	
4.36615	0.3479	-0.000457764	
4.36279	0.350647	0.00106812	
4.36035	0.353088	0.000457764	
4.35791	0.357666	0.000457764	
4.35577	0.359802	0.000457764	
4.35394	0.362854	0.000152588	
4.35028	0.368347	0.000152588	
4.34906	0.370178	0.000305176	
4.3457	0.373535	0.000152588	
4.34113	0.375366	0.000152588	
4.33868	0.377197	-0.000610352	
4.33533	0.38269	0.00106812	
4.3338	0.384827	0.000457764	
4.33105	0.387878	0	
4.328	0.392456	0.000457764	
4.32617	0.394287	0.000457764	
4.32373	0.397644	0.000305176	
4.32068	0.399475	0.000305176	
4.31671	0.402527	0.000610352	
4.31427	0.404663	0.000762939	
4.31061	0.407104	0	
4.30878	0.412903	0.000762939	
4.30573	0.414429	0.000152588	
4.30359	0.41687	0.000457764	
4.30054	0.418701	0.000457764	
4.29901	0.421753	0.000457764	
4.29626	0.423584	0.000305176	
4.2923	0.427246	0.000610352	
4.28925	0.429077	0.000305176	
4.28619	0.432129	0.000610352	
4.28436	0.436707	-0.000152588	
4.28131	0.438843	0.0012207	
4.27948	0.4422	0.000915527	
4.27643	0.44342	0.000457764	
4.27399	0.446777	0.000457764	
4.27216	0.448608	0.000152588	
4.26971	0.451355	0.000305176	
4.26697	0.453491	0.000152588	
4.2627	0.457153	0.000152588	
4.25995	0.458069	0.000305176	
4.25659	0.461426	-0.000457764	
4.25537	0.463257	0.00137329	
4.2514	0.466309	0.000762939	
4.24988	0.46814	0.000610352	
4.24652	0.46814	0.000305176	
4.24408	0.470886	0.000762939	
4.24408	0.472412	0.000610352	
4.24347	0.476074	0.000305176	
4.24164	0.477905	0.000305176	
4.24011	0.480957	0.000305176	
4.23706	0.482483	-0.000152588	
4.23248	0.485535	0.0012207	
4.22943	0.488586	0.000305176	
4.22638	0.487366	0.000152588	
4.22485	0.490723	0.000610352	
4.22272	0.492859	0.000457764	
4.21997	0.495605	0.000762939	
4.21722	0.497437	0.000305176	
4.21539	0.500793	0.000457764	
4.21204	0.503235	0.000762939	
4.2099	0.50293	-0.000152588	
4.20746	0.506287	0.0012207	
4.20563	0.506897	0.000152588	
4.20227	0.507202	0.000457764	
4.19891	0.511169	0.000762939	
4.19586	0.51178	0.000457764	
4.1922	0.515137	0.000152588	
4.19037	0.516968	0.000305176	
4.18793	0.517273	0.000610352	
4.18549	0.520325	0.000915527	
4.18274	0.521545	-0.000305176	
4.1803	0.522461	0.00106812	
4.17755	0.524902	0.000610352	
4.17572	0.527344	0.000457764	
4.17297	0.527344	0.000152588	
4.17084	0.53009	0.000152588	
4.1684	0.531616	0.000152588	
4.16626	0.532227	0.000762939	
4.16351	0.534668	0.000762939	
4.15894	0.536194	0.000305176	
4.15649	0.537415	-0.000610352	
4.15344	0.537109	0.00137329	
4.15192	0.540161	0.000610352	
4.14825	0.540771	0.000610352	
4.14551	0.541992	0.000457764	
4.14368	0.544434	0.000762939	
4.14063	0.546875	0.000305176	
4.13788	0.54718	0.000457764	
4.13635	0.546875	0	
4.1333	0.549927	0.000152588	
4.13086	0.550842	-0.000305176	
4.12842	0.551758	0.000915527	
4.12567	0.551758	0.000305176	
4.12384	0.554504	0.000152588	
4.12201	0.556641	0.000610352	
4.11835	0.556946	0.000915527	
4.1156	0.556946	0.000762939	
4.11346	0.559387	0.000610352	
4.11133	0.560913	0.000457764	
4.1095	0.562134	0.000762939	
4.10706	0.561218	0	
4.104	0.561523	0.00106812	
4.09943	0.563965	0.000305176	
4.09668	0.566406	0.000457764	
4.09393	0.566711	0.000762939	
4.0918	0.566711	-0.000152588	
4.08875	0.566711	0.000762939	
4.08661	0.566406	0.000457764	
4.08356	0.569458	0.000915527	
4.08173	0.571289	0.000610352	
4.07867	0.571289	-0.000152588	
4.07684	0.570679	0.0012207	
4.0741	0.571289	0.000305176	
4.07166	0.570984	0.000457764	
4.06921	0.574341	0.000457764	
4.06738	0.576172	0.000152588	
4.06464	0.576782	0.000152588	
4.0625	0.576172	0.000305176	
4.06006	0.576172	0.000305176	
4.05701	0.576172	0.000457764	
4.05396	0.575562	-0.000152588	
4.05243	0.576172	0.00137329	
4.05029	0.578613	0.000762939	
4.04785	0.58136	0.000305176	
4.0448	0.58197	0.000457764	
4.04205	0.581055	0.000305176	
4.03992	0.58136	0.000305176	
4.03687	0.580444	0.000457764	
4.03473	0.58136	0.000152588	
4.0329	0.58197	-0.000152588	
4.03015	0.58136	-0.000610352	
4.0271	0.581055	0.00106812	
4.02496	0.58136	0.000305176	
4.02252	0.583801	0.000610352	
4.02008	0.585632	0.000457764	
4.01855	0.586853	0.000762939	
4.0152	0.586243	0.000762939	
4.01276	0.586243	0.000610352	
4.0097	0.586853	0.000457764	
4.00787	0.586243	0.000457764	
4.00543	0.586243	-0.000152588	
4.00269	0.586243	0.00106812	
4.00024	0.585938	0.000305176	
3.99811	0.586243	0.000305176	
3.99506	0.586243	0.000915527	
3.99323	0.586243	0.000610352	
3.99017	0.585938	0.000152588	
3.98834	0.586243	0.000457764	
3.98743	0.585632	0.000610352	
3.98743	0.585938	0.000305176	
3.98712	0.586853	-0.000305176	
3.98712	0.585632	0.00137329	
3.98529	0.585938	0.000610352	
3.98376	0.586548	0.000457764	
3.98102	0.586548	0.000305176	
3.97858	0.586243	0	
3.97552	0.585632	0.000152588	
3.97308	0.585938	0.000152588	
3.97003	0.586548	0.000152588	
3.96881	0.585938	0.000457764	
3.9679	0.585938	-0.000457764	
3.96637	0.586243	0.00137329	
3.96362	0.586243	0.000610352	
3.96118	0.585938	0.000457764	
3.95844	0.586548	0.000762939	
3.95538	0.585938	0.000762939	
3.95264	0.586548	0.000457764	
3.95111	0.585938	0.000610352	
3.94836	0.585938	0	
3.94653	0.586243	0.000152588	
3.94409	0.585938	-0.000152588	
3.94104	0.586548	0.00106812	
3.93799	0.586548	0	
3.93585	0.583801	0.000305176	
3.93402	0.581665	0.000152588	
3.93127	0.58136	0.000762939	
3.92853	0.581055	0.000915527	
3.92609	0.581055	0.000610352	
3.92426	0.58197	0.000457764	
3.9212	0.581665	0.000610352	
3.91937	0.581055	-0.000457764	
3.91846	0.581665	0.000915527	
3.91632	0.58136	0.000152588	
3.91388	0.581665	0.000305176	
3.91174	0.58136	0.000152588	
3.9093	0.578308	0.000457764	
3.90625	0.576172	0.000152588	
3.90442	0.575562	0.000305176	
3.90167	0.576782	0.000610352	
3.89984	0.576477	0.000610352	
3.89618	0.576172	-0.000457764	
3.89465	0.576477	0.00137329	
3.89191	0.575867	0.000457764	
3.88916	0.576782	0.000457764	
3.88855	0.574341	0.000610352	
3.88641	0.571899	0.000305176	
3.88458	0.571594	0.000152588	
3.88092	0.571289	0.000305176	
3.8797	0.571594	0.000457764	
3.87756	0.571289	0.000610352	
3.87451	0.571594	-0.000305176	
3.87207	0.568542	0.00137329	
3.86963	0.567017	0.000457764	
3.86719	0.567017	0.000457764	
3.86444	0.566406	0.000762939	
3.86444	0.566406	0.000457764	
3.862	0.566711	0.000457764	
3.85986	0.563354	0.000457764	
3.85681	0.561829	0	
3.85529	0.561218	0.000152588	
3.85315	0.561829	-0.000305176	
3.8504	0.561829	0.00137329	
3.84766	0.561523	0.000457764	
3.84552	0.558777	0.000457764	
3.8446	0.556946	0.000457764	
3.84186	0.556335	0.000762939	
3.84064	0.557251	0.000915527	
3.83789	0.556641	0.000457764	
3.83484	0.556641	0.000610352	
3.83179	0.553589	0.000152588	
3.83057	0.552063	-0.000457764	
3.82996	0.552063	0.0012207	
3.82751	0.552063	0.000152588	
3.82599	0.551453	0.000152588	
3.82263	0.549316	0.000305176	
3.8208	0.54718	0.000457764	
3.81775	0.54718	0.000152588	
3.81561	0.54718	0.000457764	
3.815	0.546875	0.000610352	
3.81287	0.544128	0.000457764	
3.81042	0.542603	-0.000305176	
3.80829	0.541687	0.00137329	
3.80585	0.541687	0.000762939	
3.8031	0.53894	0.000152588	
3.80066	0.537415	0.000457764	
3.80066	0.53772	0	
3.79822	0.537109	0	
3.79639	0.534363	0.000305176	
3.79333	0.531921	0.000305176	
3.79059	0.531921	0.000457764	
3.78784	0.532227	-0.000305176	
3.78693	0.532227	0.0012207	
3.78571	0.529785	0.000762939	
3.78296	0.527954	0.000610352	
3.78082	0.527344	0.000457764	
3.77808	0.527344	0.000610352	
3.77594	0.524597	0.000305176	
3.77502	0.522766	0.000915527	
3.7738	0.522766	0.000457764	
3.77136	0.519104	0.000305176	
3.76892	0.517883	-0.000610352	
3.76678	0.517578	0.00137329	
3.76617	0.517273	0.000152588	
3.76312	0.514832	0.000457764	
3.76099	0.513306	0.000152588	
3.75793	0.512695	0.000305176	
3.75671	0.51178	0.000305176	
3.75366	0.509644	0.000305176	
3.75153	0.507813	0.000457764	
3.75092	0.507813	0.000457764	
3.74817	0.504761	-0.000305176	
3.74634	0.502319	0.0012207	
3.7439	0.50293	0.000610352	
3.74176	0.502625	0.000457764	
3.74084	0.499878	0.000762939	
3.73962	0.498657	0.000152588	
3.73657	0.498047	0.000305176	
3.73627	0.4953	0.000457764	
3.73413	0.492554	0.000915527	
3.73169	0.493469	0.000457764	
3.72894	0.492859	-0.000305176	
3.7265	0.490417	0.00137329	
3.7262	0.487976	0.000457764	
3.72345	0.488586	0.000457764	
3.72192	0.485229	0.000610352	
3.71979	0.483093	0	
3.71704	0.482788	0.000152588	
3.71582	0.480347	0.000152588	
3.71368	0.478821	0.000305176	
3.71185	0.477295	0.000305176	
3.70911	0.475159	-0.000457764	
3.70758	0.473328	0.00137329	
3.70667	0.473022	0.000457764	
3.70422	0.469971	0.000762939	
3.70209	0.468445	0.000610352	
3.70178	0.46875	0.000762939	
3.69965	0.466003	0.000457764	
3.69812	0.464172	0.000305176	
3.69446	0.464172	0.000457764	
3.69202	0.46051	0.000305176	
3.6911	0.458984	-0.000305176	
3.68958	0.458984	0.00106812	
3.68713	0.456543	0.000457764	
3.68622	0.453186	0.000152588	
3.68469	0.454712	0.000305176	
3.68256	0.45105	0.000457764	
3.68195	0.449829	0.000762939	
3.67859	0.448914	0.000305176	
3.67767	0.446472	0.000762939	
3.67432	0.443726	0.000457764	
3.67279	0.444336	-0.000152588	
3.67157	0.440979	0.00106812	
3.67004	0.439453	0.000152588	
3.66821	0.438843	0.000152588	
3.66699	0.436401	0.000457764	
3.66547	0.434875	0.000305176	
3.66302	0.43457	0.000152588	
3.66211	0.431824	0.000152588	
3.65967	0.429688	0.000305176	
3.65784	0.428772	0.000457764	
3.6557	0.426331	-0.000305176	
3.65295	0.42511	0.0012207	
3.65234	0.424194	0.000457764	
3.65082	0.422058	0.000457764	
3.64777	0.419922	0.000305176	
3.64655	0.41687	0	
3.64502	0.414429	0.000305176	
3.64288	0.413818	0.000305176	
3.64258	0.411682	0.000305176	
3.64014	0.409546	0.000305176	
3.63708	0.409546	-0.000457764	
3.6377	0.406799	0.00137329	
3.63495	0.405273	0.000762939	
3.63281	0.404053	0.000610352	
3.6319	0.401306	0.000457764	
3.63068	0.400391	0.000152588	
3.62793	0.396729	0.000305176	
3.62701	0.395508	0.000152588	
3.62549	0.394287	0.000305176	
3.62396	0.391846	0.000610352	
3.62305	0.390625	-0.000762939	
3.6203	0.389404	0.00106812	
3.61816	0.387268	0.000457764	
3.61816	0.385742	0.000152588	
3.61481	0.382385	0.000152588	
3.61328	0.380859	0.000762939	
3.61328	0.379944	0.000915527	
3.61084	0.378113	0.000610352	
3.60809	0.375366	0.000610352	
3.60718	0.375366	0.000457764	
3.60565	0.372314	-0.000457764	
3.60352	0.371094	0.0012207	
3.60321	0.368042	0.000305176	
3.60046	0.365601	0	
3.59772	0.365601	0.000152588	
3.59802	0.362854	0.000610352	
3.59528	0.361328	0.000457764	
3.59436	0.360413	0.000457764	
3.59314	0.357971	0.000457764	
3.591	0.355835	0.000610352	
3.58856	0.352783	-0.000152588	
3.58734	0.350647	0.0012207	
3.58612	0.350952	0.000610352	
3.58429	0.348206	0.000457764	
3.58307	0.34668	0.000457764	
3.58429	0.346069	0.000305176	
3.58124	0.343018	0	
3.5788	0.341187	0.000457764	
3.57819	0.33783	0.000152588	
3.57605	0.336304	0	
3.57361	0.336609	-0.000762939	
3.5733	0.333557	0.00137329	
3.57117	0.332642	0.000457764	
3.56873	0.331421	0.000610352	
3.56873	0.328369	0.000152588	
3.56567	0.326538	0.000152588	
3.56354	0.323486	0.000457764	
3.56323	0.321655	0.000305176	
3.56262	0.32135	0.000152588	
3.56079	0.318298	0.000305176	
3.55927	0.316772	-0.000305176	
3.55865	0.316467	0.00106812	
3.55652	0.312805	0.000457764	
3.55347	0.312195	0.000457764	
3.55347	0.308533	0.000457764	
3.55133	0.306702	0.000762939	
3.54919	0.306702	0.000762939	
3.54858	0.30426	0.000305176	
3.54889	0.302124	0.000457764	
3.54675	0.302124	0.000305176	
3.5437	0.299072	-0.000305176	
3.54401	0.297852	0.0012207	
3.54156	0.294189	0.000457764	
3.54004	0.292664	0.000152588	
3.53882	0.292358	0.000152588	
3.53851	0.289612	0.000457764	
3.53577	0.28717	0.000305176	
3.53485	0.28717	0.000457764	
3.53394	0.283508	0.000305176	
3.5318	0.281982	0.000610352	
3.52966	0.278931	-0.000305176	
3.52814	0.2771	0.0012207	
3.52875	0.2771	0.000457764	
3.52661	0.274658	0.000762939	
3.52448	0.272827	0.000457764	
3.52356	0.272522	0.000305176	
3.52173	0.269775	0.000152588	
3.5202	0.267944	0.000457764	
3.51868	0.267639	0.000152588	
3.51898	0.265198	0.000152588	
3.51654	0.262756	-0.000610352	
3.51471	0.259399	0.00137329	
3.5144	0.257874	0.000610352	
3.51379	0.257568	0.000457764	
3.5141	0.254822	0.000457764	
3.51105	0.252686	0.000152588	
3.51013	0.252075	0	
3.50891	0.249939	0.000152588	
3.50708	0.248108	0.000305176	
3.50464	0.247803	0.000152588	
3.50464	0.245667	-0.000457764	
3.50433	0.24353	0.0012207	
3.50159	0.243225	0.000762939	
3.49976	0.240479	0.000610352	
3.49915	0.239258	0.000610352	
3.49976	0.235291	0.000305176	
3.49701	0.233459	0.000762939	
3.49396	0.233765	0.000610352	
3.49426	0.230408	0.000305176	
3.49426	0.228271	0.000305176	
3.49243	0.228271	-0.000610352	
3.48999	0.224915	0.00106812	
3.48907	0.223389	0.000305176	
3.48907	0.223389	0.000610352	
3.48785	0.220032	0.000152588	
3.4848	0.218811	0.000305176	
3.48358	0.217896	0.000305176	
3.48389	0.216064	0.000457764	
3.48175	0.213623	0.000762939	
3.47992	0.213318	0.000305176	
3.47931	0.210571	-0.000457764	
3.47931	0.208435	0.000915527	
3.47748	0.209045	0.000457764	
3.47473	0.205078	0.000305176	
3.47504	0.203857	0.000610352	
3.47473	0.203857	0	
3.47229	0.201416	0.000305176	
3.47076	0.19928	0.000610352	
3.46985	0.198669	0.000152588	
3.47015	0.195313	0.000152588	
3.46741	0.194397	-0.000457764	
3.46558	0.193787	0.0012207	
3.46497	0.19104	0.000610352	
3.46466	0.189514	0.000610352	
3.46283	0.188904	0.000152588	
3.46008	0.188904	0.000305176	
3.45947	0.185852	0.000457764	
3.45947	0.184326	0.000152588	
3.45764	0.184326	0.000305176	
3.45551	0.181274	0.000305176	
3.45459	0.180054	-0.000152588	
3.45459	0.179749	0.00106812	
3.45459	0.175781	0.000762939	
3.45245	0.174866	0.000305176	
3.45001	0.173645	0.000762939	
3.45001	0.171509	0.000152588	
3.44971	0.170288	0.000762939	
3.44818	0.169373	0.000305176	
3.44543	0.166626	0.000610352	
3.44482	0.164795	0.000457764	
3.44513	0.163879	-0.000610352	
3.44452	0.16449	0.0012207	
3.44269	0.162048	0.000305176	
3.44025	0.159607	0.000305176	
3.43933	0.159607	0.000457764	
3.43994	0.15686	0.000152588	
3.43719	0.155945	0.000457764	
3.43567	0.155029	0.000457764	
3.43536	0.154419	0.000457764	
3.43506	0.152588	0.000915527	
3.43445	0.150452	-0.000305176	
3.43323	0.149536	0.00106812	
3.43079	0.14679	0.000305176	
3.43079	0.144958	0.000457764	
3.43018	0.145264	0.000762939	
3.42804	0.142212	0.000152588	
3.42621	0.140991	0.000152588	
3.42499	0.139771	0.000457764	
3.42529	0.139465	0.000305176	
3.4256	0.137939	0.000610352	
3.42255	0.134888	-0.000152588	
3.42133	0.135498	0.00137329	
3.42072	0.134888	0.000762939	
3.42072	0.132446	0.000457764	
3.42072	0.13092	0.000610352	
3.41827	0.130005	0.000610352	
3.41614	0.126953	0.000610352	
3.41553	0.126038	0.000152588	
3.41522	0.125427	0.000305176	
3.41553	0.125122	0.000152588	
3.41339	0.122375	-0.000457764	
3.41095	0.120239	0.000762939	
3.41064	0.120239	0.000610352	
3.41034	0.120239	0.000152588	
3.41064	0.118103	0.000610352	
3.4082	0.115662	0.000457764	
3.40607	0.114746	0.000915527	
3.40546	0.115662	0.000915527	
3.40576	0.112305	0.000610352	
3.40546	0.111694	0.000305176	
3.40393	0.109863	-0.000305176	
3.40088	0.108337	0.000762939	
3.40088	0.106201	0.000152588	
3.40088	0.105896	0.000305176	
3.40027	0.105591	0.000457764	
3.39844	0.102844	0.000152588	
3.396	0.101013	0.000457764	
3.396	0.101013	0.000152588	
3.39539	0.100708	0.000610352	
3.396	0.0976563	0.000457764	
3.39569	0.0961304	-0.000305176	
3.39355	0.0952148	0.0012207	
3.39172	0.0967407	0.000610352	
3.3902	0.093689	0.000457764	
3.39081	0.0912476	0.000305176	
3.39111	0.0912476	0.000152588	
3.38928	0.0909424	0	
3.38684	0.090332	0.000152588	
3.38593	0.088501	0.000610352	
3.38531	0.0863647	0.000305176	
3.38623	0.0857544	-0.000152588	
3.38409	0.0860596	0.00137329	
3.38196	0.083313	0.000305176	
3.38013	0.0817871	0.000762939	
3.38043	0.0808716	0.000610352	
3.38074	0.0808716	0.000305176	
3.38074	0.0787354	0.000610352	
3.37952	0.078125	0.000610352	
3.37616	0.0765991	0.000305176	
3.37616	0.0765991	0.000305176	
3.37524	0.0744629	-0.000305176	
3.37555	0.0723267	0.00106812	
3.37555	0.0720215	0.000457764	
3.37433	0.0723267	0.000457764	
3.37097	0.0720215	0.000152588	
3.36975	0.0695801	0.000762939	
3.37067	0.067749	0.000610352	
3.37097	0.0662231	0.000457764	
3.37097	0.0674438	0.000457764	
3.36853	0.0643921	0.000610352	
3.36639	0.0619507	-0.000152588	
3.36639	0.0628662	0.00137329	
3.36639	0.0616455	0.000457764	
3.36548	0.0619507	0	
3.36639	0.0595093	0.000457764	
3.36334	0.0570679	0.000457764	
3.36121	0.057373	0.000457764	
3.3609	0.057373	0.000305176	
3.36121	0.0546265	0.000457764	
3.3609	0.0524902	0.000610352	
3.36121	0.0521851	-0.000457764	
3.35938	0.0521851	0.0012207	
3.35693	0.0524902	0.000610352	
3.35632	0.0494385	0.000610352	
3.35602	0.0482178	0.000457764	
3.35632	0.0469971	0.000152588	
3.35602	0.0476074	0.000152588	
3.35388	0.0476074	0.000305176	
3.35205	0.0445557	0.000610352	
3.35083	0.0424194	0.000152588	
3.35114	0.0427246	-0.000610352	
3.35144	0.0421143	0.0012207	
3.35144	0.043335	0.000762939	
3.35114	0.039978	0.000915527	
3.3493	0.0378418	0.000305176	
3.34717	0.0378418	0.000152588	
3.34625	0.038147	0.000610352	
3.34625	0.03479	0.000305176	
3.34656	0.0323486	0.000305176	
3.34595	0.0326538	0.000305176	
3.34595	0.0323486	-0.000610352	
3.34412	0.0326538	0.00137329	
3.34198	0.0299072	0.000152588	
3.34137	0.0283813	0.000610352	
3.34137	0.0274658	0.000305176	
3.34137	0.0274658	0.000610352	
3.34137	0.027771	0.000762939	
3.34167	0.0253296	0.000610352	
3.33893	0.0231934	0.000457764	
3.3371	0.0228882	0.000457764	
3.33527	0.0222778	-0.000305176	
3.33618	0.0228882	0.00152588	
3.33588	0.0204468	0.000457764	
3.33527	0.0183105	0.000152588	
3.33588	0.0180054	0.000305176	
3.33466	0.0180054	0.000305176	
3.33191	0.0183105	0.000305176	
3.3316	0.0177002	0.000915527	
3.33252	0.015564	0.000610352	
3.33099	0.0134277	0.000457764	
3.33069	0.0125122	-0.000457764	
3.3313	0.0128174	0.0012207	
3.32947	0.0134277	0.000457764	
3.32764	0.0109863	0.000457764	
3.32672	0.00854492	0.000457764	
3.32642	0.00823975	0.000305176	
3.32611	0.00854492	0.000305176	
3.32611	0.00762939	0.000305176	
3.32642	0.00518799	0.000457764	
3.32611	0.00366211	0.000457764	
3.32397	0.00305176	-0.000152588	
3.32214	0.00305176	0.000915527	
3.32214	0.00274658	0.000610352	
3.32123	0	0.000610352	
3.32123	-0.0012207	0.000457764	
3.32123	-0.00152588	0.000457764	
3.32123	-0.000915527	0.000915527	
3.32153	-0.00152588	0.000305176	
3.32001	-0.00152588	0.000152588	
3.31757	-0.00396729	0.000305176	
3.31635	-0.00518799	-0.000305176	
3.31635	-0.00579834	0.0012207	
3.31573	-0.00671387	0.000152588	
3.31665	-0.00671387	0.000152588	
3.31635	-0.00915527	0.000610352	
3.31726	-0.0100708	0.000915527	
3.3139	-0.0112915	0.000915527	
3.31207	-0.0109863	0.000610352	
3.31177	-0.0106812	0.000457764	
3.31207	-0.0109863	0.000152588	
3.31177	-0.0140381	-0.000457764	
3.31207	-0.0161743	0.0012207	
3.31116	-0.0164795	0.000305176	
3.31146	-0.0161743	0.000457764	
3.30933	-0.0161743	0.000457764	
3.30719	-0.0189209	0.000457764	
3.30688	-0.020752	0.000305176	
3.30658	-0.0216675	0.000305176	
3.30719	-0.0210571	0.000762939	
3.30658	-0.0204468	0.000610352	
3.30688	-0.0213623	-0.000152588	
3.30627	-0.0241089	0.0012207	
3.30627	-0.0256348	0.000762939	
3.30475	-0.0256348	0.000610352	
3.30292	-0.0259399	0.000762939	
3.3017	-0.0259399	0.000152588	
3.3017	-0.0289917	0.000152588	
3.302	-0.0308228	0.000610352	
3.30139	-0.0314331	0.000152588	
3.3017	-0.0302124	0.000762939	
3.302	-0.0305176	-0.000457764	
3.30231	-0.0314331	0.00106812	
3.29956	-0.0341797	0.000915527	
3.29742	-0.0350952	0.000610352	
3.29712	-0.0354004	0.000305176	
3.29712	-0.0354004	0.000457764	
3.29712	-0.0360107	0.000457764	
3.29712	-0.0387573	0.000610352	
3.29712	-0.0408936	0.000305176	
3.2962	-0.0415039	0.000152588	
3.29712	-0.0415039	-0.000762939	
3.29651	-0.0411987	0.0012207	
3.29376	-0.0405884	0.000457764	
3.29254	-0.0436401	0.000305176	
3.29224	-0.045166	0.000152588	
3.29163	-0.0454712	0.000610352	
3.29224	-0.0454712	0.000915527	
3.29193	-0.045166	0.000457764	
3.29163	-0.0457764	0.000457764	
3.29254	-0.0488281	0.000305176	
3.29193	-0.0500488	-0.000152588	
3.29224	-0.0509644	0.0012207	
3.29041	-0.0506592	0.000152588	
3.28796	-0.0506592	0.000152588	
3.28735	-0.0531006	0.000305176	
3.28705	-0.055542	0.000305176	
3.28705	-0.055542	0.000152588	
3.28674	-0.0558472	0.000610352	
3.28674	-0.0552368	0.000457764	
3.28674	-0.0549316	0.000610352	
3.28644	-0.0579834	-0.000305176	
3.28674	-0.0604248	0.0012207	
3.28674	-0.0601196	0.000457764	
3.28461	-0.0604248	0.000457764	
3.28308	-0.0604248	0.000457764	
3.28247	-0.0601196	0.000305176	
3.28156	-0.0631714	0.000152588	
3.28247	-0.0650024	0.000152588	
3.28156	-0.0646973	0.000457764	
3.28217	-0.0650024	0.000152588	
3.28247	-0.0653076	-0.000152588	
3.28186	-0.0683594	0.00106812	
3.28125	-0.0695801	0.000762939	
3.28247	-0.0698853	0.000457764	
3.28003	-0.0701904	0.000610352	
3.2785	-0.0698853	0.000305176	
3.27759	-0.0704956	0.000305176	
3.2782	-0.072937	0.000152588	
3.27728	-0.0741577	0.000762939	
3.27698	-0.0747681	0.000152588	
3.27698	-0.0750732	-0.000457764	
3.27789	-0.0750732	0.000915527	
3.27698	-0.0753784	0.000305176	
3.27759	-0.0775146	0.000305176	
3.27698	-0.0796509	0.000152588	
3.27759	-0.0796509	0.000457764	
3.27515	-0.0799561	0.000915527	
3.27332	-0.0802612	0.000305176	
3.27332	-0.0827026	0.000457764	
3.27209	-0.085144	0.000457764	
3.27271	-0.085144	-0.000457764	
3.2724	-0.085144	0.00106812	
3.27271	-0.0842285	0.000305176	
3.27271	-0.0845337	0.000305176	
3.27209	-0.0875854	0.000305176	
3.27179	-0.0897217	0.000457764	
3.2724	-0.090332	0.000305176	
3.27301	-0.0900269	0.000457764	
3.27271	-0.0897217	0.000457764	
3.2724	-0.0894165	0.000610352	
3.27026	-0.0927734	-0.000610352	
3.26874	-0.0946045	0.00137329	
3.26721	-0.0946045	0.000457764	
3.26721	-0.0952148	0.000457764	
3.26752	-0.0942993	0.000457764	
3.26721	-0.0946045	0.000305176	
3.26752	-0.0970459	0.000152588	
3.26721	-0.098877	0.000152588	
3.26782	-0.100098	0.000305176	
3.26813	-0.0997925	0.000762939	
3.26752	-0.0997925	-0.000305176	
3.26813	-0.0994873	0.0012207	
3.26691	-0.102234	0.000762939	
3.26782	-0.10437	0.000610352	
3.26538	-0.10437	0.000305176	
3.26324	-0.104675	0.000305176	
3.26263	-0.10437	0.000915527	
3.26202	-0.107117	0.000305176	
3.26263	-0.108948	0.000457764	
3.26263	-0.108948	0.000305176	
3.26263	-0.109253	-0.000762939	
3.26263	-0.110168	0.00106812	
3.26233	-0.109253	0.000457764	
3.26294	-0.11322	0.000457764	
3.26233	-0.114441	0.000305176	
3.26233	-0.114136	0.000457764	
3.26263	-0.114136	0.000610352	
3.26263	-0.113525	0.000457764	
3.26294	-0.114441	0.000457764	
3.26294	-0.116882	0.000305176	
3.2605	-0.119324	-0.000457764	
3.25836	-0.119934	0.0012207	
3.25745	-0.119324	0.000457764	
3.25806	-0.118713	0.000152588	
3.25714	-0.118713	0.000457764	
3.25806	-0.122375	0.000457764	
3.25745	-0.123901	0.000305176	
3.25684	-0.124512	0.000457764	
3.25745	-0.124207	0.000305176	
3.25745	-0.124512	0.000762939	
3.25745	-0.124207	-0.000457764	
3.25806	-0.126648	0.00106812	
3.25745	-0.128784	0.000457764	
3.25806	-0.128784	0.000152588	
3.25714	-0.128784	0.000457764	
3.25745	-0.129089	0.000457764	
3.25745	-0.129089	0.000152588	
3.25745	-0.131836	0.000610352	
3.25806	-0.133362	0.000457764	
3.25531	-0.133362	0.000457764	
3.25287	-0.134583	-0.000152588	
3.25195	-0.133972	0.000915527	
3.25226	-0.134277	0.000610352	
3.25226	-0.137024	0.000610352	
3.25195	-0.13916	0.000152588	
3.25226	-0.13855	0.000457764	
3.25287	-0.138855	0.000762939	
3.25256	-0.137939	0.000457764	
3.25287	-0.139465	0.000610352	
3.25256	-0.13855	0.000152588	
3.25226	-0.141296	-0.000610352	
3.25226	-0.143127	0.00106812	
3.25287	-0.144348	0.000457764	
3.25226	-0.143738	0.000152588	
3.25287	-0.143433	0.000457764	
3.25226	-0.143433	0.000457764	
3.25256	-0.146179	0.000610352	
3.25287	-0.148315	0.000762939	
3.25226	-0.148315	0.000457764	
3.25256	-0.148621	0.000457764	
3.25256	-0.148621	-0.000152588	
3.25043	-0.148315	0.00137329	
3.2486	-0.150757	0.000762939	
3.24799	-0.152588	0.000457764	
3.24768	-0.153503	0.000457764	
3.24829	-0.154114	0.000305176	
3.24768	-0.154419	0.000457764	
3.24707	-0.153198	0.000457764	
3.24799	-0.153503	0.000457764	
3.24738	-0.15625	0.000762939	
3.24707	-0.158081	-0.000152588	
3.24768	-0.158386	0.000915527	
3.24768	-0.158081	0.000457764	
3.24768	-0.158386	0.000305176	
3.24646	-0.158691	0.000610352	
3.24768	-0.161133	0.000457764	
3.24768	-0.163269	0	
3.24738	-0.162659	0.000305176	
3.24768	-0.163269	0.000610352	
3.24768	-0.163574	0.000610352	
3.24738	-0.162964	-0.000152588	
3.24707	-0.163269	0.000915527	
3.24738	-0.1651	0.000457764	
3.24707	-0.167542	0.000457764	
3.24768	-0.167236	0.000305176	
3.24738	-0.167847	0.000610352	
3.24799	-0.168152	0.000762939	
3.24646	-0.168152	0.000457764	
3.24768	-0.167847	0.000305176	
3.24524	-0.171204	0.000152588	
3.24341	-0.172729	-0.000457764	
3.24249	-0.173645	0.0012207	
3.2428	-0.17395	0.000152588	
3.2428	-0.173035	0.000305176	
3.24249	-0.17334	0.000305176	
3.24249	-0.173035	0.000457764	
3.2428	-0.176392	0.000915527	
3.24249	-0.177307	0.000457764	
3.24249	-0.177917	0.000152588	
3.24249	-0.177917	0.000762939	
3.2428	-0.177612	-0.000457764	
3.24249	-0.178223	0.000915527	
3.24249	-0.178223	0.000305176	
3.24219	-0.180664	0.000305176	
3.24249	-0.18219	-0.000152588	
3.2428	-0.183411	0.000610352	
3.24219	-0.183105	0.000305176	
3.2428	-0.183411	0.000610352	
3.2428	-0.182495	0.000762939	
3.2431	-0.183105	0.000457764	
3.24219	-0.185242	-0.000457764	
3.24219	-0.187683	0.00137329	
3.24249	-0.188293	0.000610352	
3.24249	-0.187988	0.000610352	
3.24219	-0.187988	0.000305176	
3.24249	-0.187683	0.000457764	
3.2428	-0.187683	0	
3.2428	-0.188599	0.000457764	
3.24249	-0.19043	0.000457764	
3.2428	-0.191956	0.000152588	
3.24249	-0.192566	-0.000305176	
3.2428	-0.193176	0.0012207	
3.24249	-0.192261	0.000457764	
3.24249	-0.192566	0.000610352	
3.2428	-0.192566	0.000457764	
3.2428	-0.192261	0.000457764	
3.24158	-0.194702	0.000457764	
3.24066	-0.196838	0.000305176	
3.23853	-0.197754	0.000610352	
3.23822	-0.198059	0.000152588	
3.2373	-0.197144	-0.000152588	
3.2373	-0.197754	0.00106812	
3.23853	-0.198059	0.000457764	
3.23792	-0.197449	0.000152588	
3.23853	-0.19989	0.000305176	
3.2373	-0.201721	0.000915527	
3.23792	-0.202637	0.000915527	
3.23761	-0.202332	0.000762939	
3.23822	-0.202637	0.000457764	
3.23761	-0.202332	0.000610352	
3.23761	-0.202332	-0.000610352	
3.23761	-0.202332	0.00137329	
3.23761	-0.205078	0.000610352	
3.23792	-0.206909	0.000305176	
3.23792	-0.20752	0.000457764	
3.2373	-0.207214	0.000457764	
3.23822	-0.20752	0.000152588	
3.23761	-0.207825	0.000305176	
3.23792	-0.207214	0.000457764	
3.23853	-0.207214	0.000610352	
3.23822	-0.20752	-0.000152588	
3.23822	-0.210571	0.00106812	
3.23792	-0.211182	0.000457764	
3.2373	-0.212402	0.000610352	
3.23761	-0.212097	0.000152588	
3.23761	-0.212708	0.000305176	
3.2373	-0.212402	0.000305176	
3.23761	-0.212402	0.000305176	
3.237	-0.212708	0.000457764	
3.23761	-0.212708	0.000152588	
3.23761	-0.215454	-0.000305176	
3.23761	-0.217285	0.00106812	
3.2373	-0.21759	0.000915527	
3.2373	-0.217285	0.000305176	
3.23761	-0.217285	0.000457764	
3.23792	-0.217896	0.000610352	
3.23761	-0.217285	0.000457764	
3.23792	-0.217285	0.000457764	
3.23822	-0.21698	0.000152588	
3.23822	-0.220642	0	
3.23761	-0.222168	-0.000305176	
3.23822	-0.222168	0.0012207	
3.23792	-0.222473	0.000152588	
3.23761	-0.221863	0.000762939	
3.23792	-0.223083	0.000305176	
3.23792	-0.221863	0.000610352	
3.23792	-0.222168	0.000610352	
3.2373	-0.222168	0.000610352	
3.2373	-0.224304	0.000152588	
3.23669	-0.226746	0.000915527	
3.23792	-0.227356	-0.000610352	
3.23792	-0.227356	0.0012207	
3.2373	-0.226746	0.000305176	
3.23822	-0.227051	0.000152588	
3.23761	-0.227356	0.000305176	
3.23761	-0.226746	0.000457764	
3.23761	-0.227356	0.000305176	
3.23792	-0.227051	0.000457764	
3.23761	-0.22644	0.000457764	
3.23853	-0.230103	0.000762939	
3.2373	-0.231628	-0.000152588	
3.2373	-0.232544	0.000915527	
3.23792	-0.231628	0.000762939	
3.23761	-0.232239	0.000305176	
3.23761	-0.232239	0.000610352	
3.23792	-0.231628	0	
3.2373	-0.231934	0.000152588	
3.23792	-0.231323	0.000152588	
3.23822	-0.231323	0.000457764	
3.23761	-0.234985	0.000152588	
3.23792	-0.235901	-0.000305176	
3.23792	-0.236511	0.00106812	
3.2373	-0.236816	0.000762939	
3.23792	-0.236206	0.000762939	
3.237	-0.236206	0.000305176	
3.23761	-0.236816	0.000305176	
3.237	-0.236511	0.000152588	
3.23822	-0.236816	0.000457764	
3.23792	-0.236511	0.000305176	
3.2373	-0.237427	0	
3.23761	-0.239868	-0.000152588	
3.23792	-0.241699	0.000915527	
3.23792	-0.241394	0.000457764	
3.23761	-0.241699	0.000457764	
3.23761	-0.241699	0.000610352	
3.23761	-0.241699	0.000305176	
3.23792	-0.241699	0.000457764	
3.23792	-0.241394	0.000915527	
3.23761	-0.241699	0.000305176	
3.23761	-0.241394	0.000610352	
3.2373	-0.241699	-0.000305176	
3.2373	-0.241699	0.00137329	
3.237	-0.244446	0.000152588	
3.2373	-0.246277	0.000457764	
3.23669	-0.246887	0.000610352	
3.23761	-0.246887	0.000305176	
3.2373	-0.247192	0.000457764	
3.23761	-0.246582	0.000457764	
3.2373	-0.246887	0.000610352	
3.23761	-0.246582	0.000915527	
3.23792	-0.246887	-0.000152588	
3.23761	-0.246277	0.00106812	
3.23761	-0.246582	0.000457764	
3.2373	-0.245972	0.000610352	
3.23792	-0.246582	0.000305176	
3.23792	-0.249634	0.000152588	
3.2373	-0.25177	0.000305176	
3.23822	-0.25116	0.000152588	
3.23792	-0.250854	0.000305176	
3.23792	-0.25116	0.000305176	
3.23853	-0.25177	-0.000610352	
3.2373	-0.251465	0.00106812	
3.23792	-0.250854	0.000610352	
3.23761	-0.251465	0.000610352	
3.23853	-0.251465	0.000610352	
3.23792	-0.25116	0.000305176	
3.23792	-0.251465	0.000610352	
3.23822	-0.251465	0.000152588	
3.23761	-0.252075	0.000457764	
3.23792	-0.251465	0	
3.23761	-0.254211	-0.000457764	
3.23792	-0.255737	0.00106812	
3.23944	-0.256042	0.000457764	
3.24158	-0.256348	0.000457764	
3.24219	-0.256653	0.000305176	
3.24249	-0.256348	0.000457764	
3.2431	-0.256348	0.000762939	
3.2431	-0.256348	0.000305176	
3.24249	-0.256042	0.000305176	
3.2428	-0.256348	0.000152588	
3.24249	-0.256958	-0.000152588	
3.2428	-0.256348	0.0012207	
3.24219	-0.257263	0.000152588	
3.24249	-0.256042	0.000457764	
3.24249	-0.255737	0.000610352	
3.24249	-0.255737	0.000610352	
3.24219	-0.255737	0.000457764	
3.24249	-0.259399	0.000305176	
3.2431	-0.26062	0.000457764	
3.24249	-0.260315	0.000610352	
3.24219	-0.261536	-0.000610352	
3.2428	-0.262146	0.00106812	
3.2428	-0.26123	0.000610352	
3.2428	-0.261841	0.000305176	
3.24249	-0.260925	0.000305176	
3.2428	-0.262146	0.000152588	
3.24249	-0.261536	0.000152588	
3.24249	-0.26123	0.000305176	
3.24249	-0.261536	0.000305176	
3.2431	-0.260925	0.000305176	
3.2428	-0.26123	-0.000152588	
3.2431	-0.259705	0.00137329	
3.2431	-0.26123	0.000762939	
3.24219	-0.261536	0.000305176	
3.2428	-0.261536	0.000457764	
3.24249	-0.261536	0.000457764	
3.24219	-0.26123	0.000305176	
3.24219	-0.263672	0.000305176	
3.24249	-0.266113	0.000457764	
3.2431	-0.265808	0.000152588	
3.2431	-0.266724	-0.000610352	
3.24219	-0.266418	0.0012207	
3.24249	-0.266113	0.000457764	
3.2431	-0.266724	0.000457764	
3.24249	-0.266418	0.000305176	
3.2428	-0.265808	0.000305176	
3.2431	-0.266113	0.000762939	
3.24219	-0.266418	0.000457764	
3.24219	-0.266113	0.000457764	
3.2431	-0.266418	0.000610352	
3.24249	-0.266113	-0.000305176	
3.2428	-0.266113	0.0012207	
3.2428	-0.266418	0.000152588	
3.2431	-0.266418	0.000305176	
3.2431	-0.266113	0.000610352	
3.24432	-0.265808	0.000305176	
3.24768	-0.266418	0.000305176	
3.24738	-0.266113	0.000305176	
3.24707	-0.266113	0.000457764	
3.24768	-0.266724	0.000915527	
3.24738	-0.266113	-0.000305176	
3.24799	-0.266113	0.0012207	
3.24738	-0.265808	0.000305176	
3.24799	-0.266724	0.000152588	
3.24768	-0.265503	0.000457764	
3.24738	-0.26886	0.000305176	
3.24738	-0.271301	0	
3.24738	-0.271301	0.000305176	
3.24768	-0.270996	0.000457764	
3.24799	-0.271606	0.000305176	
3.24738	-0.271606	-0.000457764	
3.24768	-0.270386	0.00137329	
3.24768	-0.270691	0.000457764	
3.24768	-0.270996	0.000610352	
3.24768	-0.271301	0.000457764	
3.24799	-0.271301	0.000610352	
3.24799	-0.270996	0.000610352	
3.24829	-0.271606	0.000305176	
3.24768	-0.270996	0.000305176	
3.24768	-0.271912	0.000152588	
3.24738	-0.270996	-0.000305176	
3.24829	-0.270996	0.00106812	
3.24799	-0.270691	0.000457764	
3.24768	-0.270996	0.000610352	
3.24768	-0.271912	0.000610352	
3.24707	-0.270691	0.000152588	
3.24829	-0.271301	0.000457764	
3.24799	-0.270691	0.000457764	
3.24768	-0.270691	0.000305176	
3.24829	-0.270386	0.000457764	
3.24738	-0.271606	-0.000152588	
3.24707	-0.271301	0.0012207	
3.24799	-0.271301	0.000457764	
3.24921	-0.271912	0.000457764	
3.25195	-0.271301	-0.000152588	
3.25287	-0.270691	0.000305176	
3.25226	-0.271301	0.000305176	
3.25287	-0.270386	0	
3.25287	-0.270996	0.000610352	
3.25317	-0.271301	0.000762939	
3.25226	-0.271301	-0.000457764	
3.25165	-0.270996	0.00137329	
3.25287	-0.271301	0.000457764	
3.25317	-0.270996	0.000457764	
3.25256	-0.270386	0.000610352	
3.25195	-0.270996	0.000305176	
3.25287	-0.271301	0.000305176	
3.25317	-0.270691	0.000457764	
3.25226	-0.270996	0.000762939	
3.25226	-0.270386	0.000610352	
3.25256	-0.270996	-0.000305176	
3.25256	-0.270691	0.0012207	
3.25256	-0.270996	0.000457764	
3.25226	-0.270691	0.000610352	
3.25226	-0.270691	0.000610352	
3.25256	-0.270386	0.000152588	
3.25256	-0.270996	0.000457764	
3.25256	-0.270691	0.000457764	
3.25226	-0.271301	0.000152588	
3.25226	-0.270691	0	
3.25195	-0.270691	-0.000762939	
3.25256	-0.271606	0.000915527	
3.25287	-0.271606	0.000457764	
3.25226	-0.271606	0.000457764	
3.25226	-0.271606	0.000152588	
3.25287	-0.271301	0.000610352	
3.25226	-0.270996	0.000457764	
3.25256	-0.271301	0.000152588	
3.25439	-0.271912	0.000762939	
3.25653	-0.271912	0.000610352	
3.25684	-0.270996	-0.000305176	
3.25714	-0.270996	0.0012207	
3.25684	-0.270691	0.000305176	
3.25714	-0.270996	0.000305176	
3.25806	-0.270996	0.000152588	
3.25775	-0.271301	0.000457764	
3.25745	-0.271301	0.000305176	
3.25745	-0.270996	0.000152588	
3.25745	-0.271606	0.000762939	
3.25745	-0.270691	0.000915527	
3.25745	-0.270691	-0.000457764	
3.25714	-0.271301	0.000762939	
3.25745	-0.271606	0.000762939	
3.25714	-0.270691	0.000762939	
3.25745	-0.270996	0.000152588	
3.25745	-0.270386	0.000457764	
3.25775	-0.271301	0.000305176	
3.25775	-0.270996	0.000457764	
3.25745	-0.270996	0.000152588	
3.25745	-0.271301	0.000915527	
3.25806	-0.270691	-0.000305176	
3.25745	-0.270691	0.000915527	
3.25745	-0.271912	0.000762939	
3.25745	-0.271606	0.000457764	
3.25775	-0.270691	0.000305176	
3.25775	-0.270691	0.000915527	
3.25714	-0.270996	0.000457764	
3.25928	-0.271301	0.000457764	
3.26172	-0.271606	0.000152588	
3.26263	-0.271606	-0.000152588	
3.26263	-0.270691	-0.000457764	
3.26263	-0.271606	0.0012207	
3.26263	-0.270691	0.000305176	
3.26233	-0.270386	0.000305176	
3.26263	-0.271301	0.000152588	
3.26202	-0.271301	0.000457764	
3.26263	-0.271301	0.000610352	
3.26294	-0.270996	0.000610352	
3.26233	-0.271606	0.000457764	
3.26202	-0.270691	0.000610352	
3.26172	-0.270996	-0.000457764	
3.26263	-0.272217	0.000915527	
3.26263	-0.270996	0.000152588	
3.26294	-0.270996	0.000457764	
3.26263	-0.271301	0.000610352	
3.26263	-0.271912	0.000457764	
3.26202	-0.271301	0.000457764	
3.26263	-0.271301	0.000305176	
3.26263	-0.271301	0.000610352	
3.26263	-0.26886	0.000305176	
3.26263	-0.266418	-0.000152588	
3.26233	-0.266113	0.0012207	
3.26233	-0.265808	0.000762939	
3.26508	-0.266113	0.000610352	
3.2663	-0.266113	0.000457764	
3.26721	-0.266418	0.000610352	
3.26782	-0.266418	0	
3.26752	-0.266418	0.000305176	
3.26721	-0.266724	0.000305176	
3.26721	-0.266113	0.000457764	
3.2666	-0.266113	-0.000610352	
3.26691	-0.265503	0.00106812	
3.2666	-0.266113	0.000762939	
3.26782	-0.266113	0.000762939	
3.26752	-0.266113	0.000762939	
3.26752	-0.265808	0.000305176	
3.26691	-0.266113	0.000457764	
3.26752	-0.266418	0.000457764	
3.26813	-0.266113	0.000152588	
3.26752	-0.266724	0.000152588	
3.26721	-0.266113	-0.000457764	
3.26752	-0.266113	0.00106812	
3.26813	-0.266113	0.000457764	
3.2666	-0.266418	0.000152588	
3.26752	-0.266113	0.000457764	
3.26721	-0.266113	0.000152588	
3.26691	-0.265503	0.000762939	
3.26752	-0.266418	0.000762939	
3.27057	-0.266724	0.000457764	
3.27209	-0.267029	0.000305176	
3.27209	-0.266418	-0.000762939	
3.27209	-0.266113	0.00106812	
3.27209	-0.266418	0.000152588	
3.27209	-0.263367	0.000152588	
3.27148	-0.261841	0.000305176	
3.2724	-0.260925	0.000762939	
3.27209	-0.26123	0.000762939	
3.27209	-0.26062	0.000457764	
3.27301	-0.261841	0.000610352	
3.27271	-0.261536	0.000762939	
3.27179	-0.260925	-0.000305176	
3.27271	-0.261841	0.00106812	
3.2724	-0.260925	0.000915527	
3.27271	-0.262451	0.000305176	
3.27209	-0.26062	0.000457764	
3.27271	-0.261536	0.000305176	
3.27332	-0.260925	-0.000152588	
3.27271	-0.261536	0	
3.2724	-0.260925	0.000457764	
3.27301	-0.26123	0	
3.27271	-0.261536	-0.000457764	
3.27454	-0.26123	0.00137329	
3.27698	-0.261841	0.000610352	
3.27698	-0.261536	0.000152588	
3.27698	-0.26062	0.000457764	
3.27759	-0.26123	0.000305176	
3.27789	-0.261536	0.000457764	
3.27728	-0.261841	0.000457764	
3.27789	-0.261536	0.000305176	
3.27698	-0.262146	-0.000152588	
3.27698	-0.259094	-0.000305176	
3.27728	-0.257263	0.00106812	
3.27789	-0.256348	0.000457764	
3.27728	-0.256653	0.000457764	
3.2782	-0.256653	0.000152588	
3.27789	-0.256042	0.000152588	
3.27789	-0.256653	0.00106812	
3.27728	-0.255432	0.000762939	
3.27728	-0.256653	0.000305176	
3.27789	-0.256348	0.000305176	
3.27759	-0.256348	-0.000610352	
3.27728	-0.256042	0.000915527	
3.27728	-0.256653	0.000305176	
3.27911	-0.256348	0.000457764	
3.28186	-0.256348	0.000457764	
3.28186	-0.256958	0.000457764	
3.28217	-0.256958	0.000305176	
3.28217	-0.256653	0.000610352	
3.28186	-0.256958	0.000457764	
3.28156	-0.256653	0.000457764	
3.28156	-0.256042	-0.000305176	
3.28156	-0.256653	0.0012207	
3.28217	-0.256348	0.000457764	
3.28217	-0.256042	0.000457764	
3.28156	-0.252991	0.000457764	
3.28186	-0.251465	0.000305176	
3.28156	-0.25116	0.000152588	
3.28217	-0.25177	0.000305176	
3.28247	-0.25177	0.000762939	
3.28217	-0.25177	0.000457764	
3.28186	-0.25238	-0.000610352	
3.28217	-0.251465	0.0012207	
3.28186	-0.251465	0.000762939	
3.28156	-0.250854	0.000610352	
3.28369	-0.251465	0.000305176	
3.28644	-0.251465	0.000305176	
3.28674	-0.251465	0.000762939	
3.28674	-0.250549	0.000610352	
3.28644	-0.25116	-0.000152588	
3.28735	-0.251465	0	
3.28674	-0.25177	-0.000305176	
3.28644	-0.251465	0.000762939	
3.28674	-0.25177	0.000305176	
3.28644	-0.252075	0.000610352	
3.28735	-0.251465	0.000457764	
3.28766	-0.25116	0.000610352	
3.28613	-0.249023	0.00106812	
3.28644	-0.246582	0.000152588	
3.28644	-0.246887	0.000457764	
3.28674	-0.246277	0.000762939	
3.28735	-0.246277	-0.000305176	
3.28705	-0.246887	0.0012207	
3.28735	-0.246887	0.000610352	
3.28644	-0.246887	0.000305176	
3.28918	-0.246887	0.000152588	
3.29102	-0.246277	0.000305176	
3.29193	-0.245972	0.000457764	
3.29254	-0.246887	0.000305176	
3.29224	-0.246277	0.000610352	
3.29193	-0.246277	0.000762939	
3.29193	-0.246582	0	
3.29254	-0.245972	0.00106812	
3.29254	-0.245972	0.000457764	
3.29193	-0.246887	0.000762939	
3.29224	-0.246582	0.000305176	
3.29163	-0.247192	0.000305176	
3.29224	-0.246887	0.000152588	
3.29224	-0.243835	0	
3.29193	-0.241699	0.000305176	
3.29224	-0.241394	0.000762939	
3.29193	-0.241394	-0.000457764	
3.29132	-0.241394	0.00106812	
3.29163	-0.241394	0.000457764	
3.29437	-0.241699	0.000305176	
3.2962	-0.241394	0.000305176	
3.29712	-0.241394	0.000915527	
3.29803	-0.242004	0.000457764	
3.29651	-0.241394	0.000457764	
3.29712	-0.241394	0.000457764	
3.29681	-0.241699	0.000152588	
3.29651	-0.242004	-0.000457764	
3.29712	-0.241699	0.00106812	
3.29742	-0.241394	0.000305176	
3.29681	-0.241394	0.000457764	
3.29742	-0.241699	0.000762939	
3.29712	-0.241089	0.000610352	
3.29681	-0.240479	0.000610352	
3.29681	-0.241089	0.000457764	
3.29651	-0.238342	0.000457764	
3.2962	-0.237732	0.000915527	
3.29712	-0.236816	-0.000457764	
3.29651	-0.237122	0.0012207	
3.29865	-0.236816	0.000457764	
3.3017	-0.236816	0	
3.3017	-0.236816	0.000305176	
3.3017	-0.236206	0.000457764	
3.30139	-0.237122	0.000610352	
3.3017	-0.237122	0.000457764	
3.3017	-0.236206	0.000457764	
3.30231	-0.236511	0.00106812	
3.3017	-0.237122	-0.000152588	
3.302	-0.236511	0.000915527	
3.30231	-0.236511	0.000762939	
3.3017	-0.236206	0.000457764	
3.30231	-0.236816	0.000915527	
3.30139	-0.236511	0.000152588	
3.302	-0.236816	0.000152588	
3.3017	-0.237122	0.000457764	
3.3017	-0.234375	0.000610352	
3.3017	-0.232849	0.000305176	
3.30444	-0.231934	-0.000457764	
3.30658	-0.231323	0.0012207	
3.30688	-0.231628	0.000457764	
3.30658	-0.231934	0.000610352	
3.30688	-0.231628	0.000610352	
3.30688	-0.231628	0.000305176	
3.30627	-0.231934	0.000457764	
3.30658	-0.232239	0.000457764	
3.30658	-0.231628	0.000457764	
3.30658	-0.232544	0	
3.30688	-0.231934	-0.000762939	
3.30658	-0.231934	0.0012207	
3.30627	-0.231628	0.000457764	
3.30627	-0.231628	0.000457764	
3.30658	-0.231323	0.000305176	
3.30627	-0.232239	0.000915527	
3.30719	-0.231628	0.000762939	
3.30902	-0.231628	0.000457764	
3.31146	-0.229492	0.000305176	
3.31177	-0.227356	0.000457764	
3.31146	-0.227051	-0.000152588	
3.31146	-0.227356	0.00106812	
3.31116	-0.227051	0.000457764	
3.31177	-0.226746	0.000305176	
3.31177	-0.226746	0.000457764	
3.31177	-0.227051	0.000305176	
3.31146	-0.226746	0.000305176	
3.31177	-0.227661	0.000610352	
3.31177	-0.227356	0.000152588	
3.31146	-0.227356	0.00106812	
3.31146	-0.227356	-0.000305176	
3.31116	-0.227356	0.0012207	
3.31146	-0.227051	0.000762939	
3.31238	-0.227661	0.000610352	
3.3139	-0.226746	0.000457764	
3.31604	-0.227356	0.000305176	
3.31726	-0.226746	0	
3.31665	-0.227051	0.000305176	
3.31757	-0.224304	0.000152588	
3.31696	-0.223389	0.000152588	
3.31665	-0.222473	-0.000305176	
3.31696	-0.222473	0.0012207	
3.31635	-0.222168	0.000457764	
3.31665	-0.222473	0.000762939	
3.31665	-0.222473	0.000762939	
3.31696	-0.222778	0.000610352	
3.31604	-0.222473	0.000610352	
3.31696	-0.221558	0.000457764	
3.31635	-0.222778	0.000305176	
3.31696	-0.222168	0	
3.31635	-0.222473	-0.000610352	
3.31909	-0.222473	0.0012207	
3.32062	-0.222778	0.000152588	
3.32184	-0.221863	0.000457764	
3.32153	-0.222168	0.000305176	
3.32153	-0.222473	0.000762939	
3.32184	-0.221252	0.000915527	
3.32153	-0.221863	0.000305176	
3.32092	-0.219116	0.000610352	
3.32123	-0.21759	0.000762939	
3.32184	-0.216675	-0.000457764	
3.32153	-0.217285	0.0012207	
3.32153	-0.217285	0.000457764	
3.32153	-0.21759	0.000152588	
3.32184	-0.21698	0.000457764	
3.32153	-0.218201	0.000457764	
3.32092	-0.21759	0.000305176	
3.32123	-0.216675	0.000457764	
3.32367	-0.21759	0.000457764	
3.32611	-0.217285	0.000610352	
3.32611	-0.217896	-0.000152588	
3.32611	-0.216675	0.0012207	
3.32703	-0.217896	0.000457764	
3.32611	-0.21698	0.000762939	
3.32642	-0.21698	0.000152588	
3.32672	-0.217285	0.000610352	
3.32642	-0.21759	0	
3.32642	-0.21759	0.000152588	
3.32703	-0.214539	0.000152588	
3.32672	-0.212708	0.000305176	
3.32672	-0.211792	-0.000610352	
3.32642	-0.212402	0.00106812	
3.32672	-0.212097	0.000457764	
3.32672	-0.212402	0.000762939	
3.32611	-0.211792	0.000457764	
3.32855	-0.212402	0.000152588	
3.33038	-0.212097	0.000457764	
3.3313	-0.213318	0.000152588	
3.33191	-0.212097	0.000152588	
3.3316	-0.212402	0.000762939	
3.33099	-0.212708	-0.000610352	
3.3313	-0.212402	0.00106812	
3.3313	-0.211792	0.000457764	
3.3313	-0.212402	0.000457764	
3.3316	-0.212402	0.000305176	
3.3316	-0.213318	0.000762939	
3.3316	-0.211792	0.000762939	
3.3316	-0.212097	0.000762939	
3.33069	-0.209656	0.000305176	
3.33099	-0.207825	0.000610352	
3.33221	-0.207825	-0.000152588	
3.3316	-0.207214	0.000915527	
3.3316	-0.206909	0.000152588	
3.3316	-0.207825	0.000457764	
3.3313	-0.206909	0.000305176	
3.33313	-0.20752	0.000305176	
3.33527	-0.20752	0.000457764	
3.33679	-0.20752	0.000305176	
3.33618	-0.207214	0.000610352	
3.33649	-0.207825	0.000610352	
3.33649	-0.207825	-0.000152588	
3.33618	-0.207214	0.00137329	
3.33679	-0.20752	0.000152588	
3.33679	-0.207825	0.000762939	
3.33679	-0.204468	0.000457764	
3.33618	-0.202942	0.000457764	
3.33588	-0.202637	0.000305176	
3.33588	-0.202332	-0.000152588	
3.33618	-0.202637	0.000305176	
3.33679	-0.202332	-0.000457764	
3.33618	-0.202332	0.000762939	
3.33618	-0.202942	0.000305176	
3.3371	-0.202332	0.000457764	
3.33588	-0.202332	0.000610352	
3.33588	-0.202637	0.000610352	
3.33679	-0.199585	0.000457764	
3.33679	-0.197449	0.000152588	
3.33649	-0.196838	0.000305176	
3.33679	-0.197449	0.000762939	
3.33862	-0.197449	-0.000305176	
3.34076	-0.197144	0.00106812	
3.34167	-0.197754	0.000457764	
3.34137	-0.197449	0.000457764	
3.34167	-0.197144	0.000457764	
3.34106	-0.197754	0.000457764	
3.34137	-0.194397	0.000305176	
3.34167	-0.193176	0.000762939	
3.34137	-0.192566	0.000762939	
3.34198	-0.192261	0.000305176	
3.34137	-0.192566	-0.000152588	
3.34106	-0.193176	0.0012207	
3.34167	-0.191956	0.000762939	
3.34106	-0.192871	0.000610352	
3.34167	-0.189819	0.000152588	
3.34106	-0.188904	0.000152588	
3.34076	-0.187988	0.000762939	
3.34106	-0.187988	0.000457764	
3.34076	-0.187988	0.000457764	
3.34106	-0.187988	0.000762939	
3.34106	-0.187988	-0.000152588	
3.34076	-0.185242	0.00137329	
3.34106	-0.183411	0.000610352	
3.34137	-0.183105	0.000457764	
3.34198	-0.1828	0.000305176	
3.34106	-0.183411	0.000457764	
3.34137	-0.183105	0.000305176	
3.34167	-0.180054	0.000152588	
3.34167	-0.178528	0.000152588	
3.34137	-0.178223	0.000762939	
3.34198	-0.178223	-0.000457764	
3.34106	-0.177612	0.000915527	
3.34137	-0.175476	0.000457764	
3.34137	-0.17334	0.000457764	
3.34167	-0.17334	0.000610352	
3.3432	-0.173035	0.000457764	
3.34534	-0.172729	0.000457764	
3.34595	-0.170593	0.000610352	
3.34656	-0.168762	0.000457764	
3.34686	-0.168457	0.000305176	
3.34625	-0.167847	-0.000152588	
3.34595	-0.1651	0.0012207	
3.34625	-0.163574	0.000305176	
3.34595	-0.163574	0.000457764	
3.34686	-0.163269	0.000610352	
3.34625	-0.160217	0.000457764	
3.34625	-0.158386	0.000915527	
3.34656	-0.158386	0.000457764	
3.34625	-0.157471	0.000457764	
3.34625	-0.155334	0.000610352	
3.34656	-0.153809	-0.000152588	
3.34625	-0.153809	0.00137329	
3.34595	-0.153809	0.000457764	
3.34686	-0.150452	0.000305176	
3.34595	-0.148926	0.000457764	
3.34595	-0.148315	0	
3.34625	-0.146179	0.000305176	
3.34656	-0.144653	0.000610352	
3.34686	-0.144043	0.000305176	
3.34625	-0.140686	0.000457764	
3.34595	-0.139465	-0.000152588	
3.34625	-0.138855	0.00152588	
3.34656	-0.135803	0.000457764	
3.34656	-0.134583	0.000762939	
3.34625	-0.133972	0.000457764	
3.34595	-0.13092	0.000457764	
3.34595	-0.130005	0.000305176	
3.34717	-0.1297	0.000152588	
3.34656	-0.126343	0	
3.34625	-0.124817	0.000305176	
3.34625	-0.123901	-0.000457764	
3.34595	-0.12207	0.00106812	
3.34625	-0.120239	0.000457764	
3.34564	-0.116272	0.000457764	
3.34656	-0.115051	0.000457764	
3.34656	-0.113831	0.000305176	
3.34625	-0.112305	0.000152588	
3.34595	-0.109253	0.000305176	
3.34717	-0.107117	0.000305176	
3.34656	-0.10437	0.000457764	
3.34595	-0.104675	-0.000610352	
3.34656	-0.101624	0.0012207	
3.34656	-0.100403	0.000152588	
3.34534	-0.0967407	0.000305176	
3.34656	-0.0952148	0.000457764	
3.34625	-0.0912476	0.000305176	
3.34625	-0.0909424	0.000915527	
3.34686	-0.0872803	0.000915527	
3.34656	-0.0836182	0.000610352	
3.34595	-0.0820923	0.000915527	
3.34625	-0.0799561	0	
3.34656	-0.0799561	0.0012207	
3.34595	-0.0772095	0.000457764	
3.34686	-0.0753784	0.000457764	
3.34656	-0.072937	0.000305176	
3.34595	-0.0708008	0.000610352	
3.34595	-0.0680542	0.000457764	
3.34625	-0.0653076	0.000305176	
3.34656	-0.0628662	0.000305176	
3.34625	-0.0604248	0.000762939	
3.34625	-0.0576782	0	
3.34656	-0.0531006	0.00106812	
3.34595	-0.0509644	0.000610352	
3.34595	-0.0476074	0.000305176	
3.34686	-0.0460815	0.000762939	
3.34564	-0.0430298	0.000610352	
3.34564	-0.0405884	0.000305176	
3.34625	-0.0384521	0.000152588	
3.34625	-0.0363159	0.000305176	
3.34625	-0.0335693	0.000457764	
3.34656	-0.0283813	-0.000152588	
3.34625	-0.0265503	0.00106812	
3.34625	-0.0234985	0	
3.34564	-0.0213623	0.000762939	
3.34595	-0.0183105	0.000610352	
3.34595	-0.0167847	0.000457764	
3.34656	-0.0134277	0.000305176	
3.34625	-0.00915527	0.000305176	
3.34656	-0.00671387	0.000457764	
3.34625	-0.00366211	0.000305176	
3.34595	-0.00244141	-0.000305176	
3.34656	0.00152588	0.00106812	
3.34625	0.00610352	0.000305176	
3.34656	0.00762939	0.000152588	
3.34656	0.010376	0.000152588	
3.34595	0.0158691	0.000305176	
3.34717	0.017395	0.000610352	
3.34625	0.0210571	0.00106812	
3.34656	0.0247192	0.000457764	
3.34595	0.027771	0.000610352	
3.34656	0.0302124	-0.000152588	
3.34656	0.0350952	0.00137329	
3.34595	0.0366211	0.000457764	
3.34564	0.0405884	0.000457764	
3.34595	0.0424194	0.000152588	
3.34595	0.045166	0.000457764	
3.34656	0.0500488	0.000152588	
3.34595	0.0546265	0.000305176	
3.34717	0.0564575	0.000457764	
3.34656	0.0604248	0.000762939	
3.34381	0.0646973	-0.000152588	
3.34198	0.0671387	0.00152588	
3.34106	0.0701904	0.000610352	
3.34106	0.0744629	0.000610352	
3.34106	0.0762939	0.000305176	
3.34137	0.0799561	0.000305176	
3.34106	0.0830078	0.000610352	
3.34106	0.0857544	0	
3.34137	0.088501	0.000152588	
3.34137	0.0933838	0.000305176	
3.34076	0.0982666	-0.000610352	
3.34106	0.100708	0.0012207	
3.34167	0.103455	0.000762939	
3.34137	0.107727	0.000762939	
3.34106	0.109863	0.000305176	
3.34106	0.113831	0.000610352	
3.34137	0.117798	0.000457764	
3.34106	0.122681	0.000305176	
3.34137	0.125427	0.000305176	
3.34137	0.128784	0.000457764	
3.34137	0.132751	-0.000457764	
3.34137	0.134277	0.00137329	
3.34106	0.137024	0.000610352	
3.34167	0.142517	0.000305176	
3.34167	0.147095	0.000152588	
3.34137	0.149536	0.000457764	
3.34076	0.152283	0.000457764	
3.34106	0.15686	0.000610352	
3.34106	0.161743	0.000305176	
3.34106	0.163879	0.000457764	
3.34167	0.167236	-0.000152588	
3.34106	0.172119	0.00137329	
3.34106	0.176697	0.000152588	
3.34167	0.179138	0.000305176	
3.34137	0.181885	0.000152588	
3.34137	0.186768	0.000152588	
3.34137	0.187988	0.000305176	
3.34167	0.192261	0.000305176	
3.34167	0.196228	0.000152588	
3.34198	0.200806	0.000305176	
3.34137	0.203247	-0.000152588	
3.34106	0.206604	0.0012207	
3.34076	0.211792	0.000762939	
3.34106	0.216064	0.000457764	
3.34106	0.21759	0.000457764	
3.34137	0.221558	0.000457764	
3.34137	0.225525	0.000152588	
3.34137	0.229797	0	
3.34137	0.232849	0.000305176	
3.33923	0.235596	0.000457764	
3.33679	0.240173	-0.000305176	
3.33649	0.245667	0.000915527	
3.33649	0.246887	0.000610352	
3.33679	0.249939	0.000762939	
3.33618	0.255432	0.000610352	
3.33649	0.257568	0.000762939	
3.33588	0.260315	0.000457764	
3.33618	0.264893	0.000457764	
3.33679	0.269775	0.000305176	
3.33649	0.271301	0.000305176	
3.33588	0.275269	-0.000305176	
3.33618	0.280151	0.00106812	
3.33618	0.284424	0.000305176	
3.33649	0.286255	0.000457764	
3.33679	0.289917	0.000305176	
3.33618	0.294495	0.000457764	
3.33679	0.297241	0.000305176	
3.33618	0.299683	0.000762939	
3.33618	0.303955	0.000762939	
3.33618	0.308838	0.000457764	
3.33679	0.310974	-0.000305176	
3.33649	0.314331	0.0012207	
3.33679	0.317993	0.000457764	
3.33679	0.321045	0.000305176	
3.33649	0.323792	0.000152588	
3.33649	0.328369	0.000610352	
3.33618	0.333252	0.000457764	
3.33618	0.335083	0.000457764	
3.33618	0.339355	0.000305176	
3.33618	0.343628	0.000610352	
3.33588	0.345154	-0.000152588	
3.33618	0.348206	0.00106812	
3.33618	0.353699	0.000610352	
3.33649	0.355225	0.000457764	
3.33588	0.358887	0.000610352	
3.33496	0.362854	0.000762939	
3.33221	0.365295	0.000305176	
3.3313	0.368652	0.000305176	
3.3313	0.372925	0	
3.3313	0.374756	0.000152588	
3.33099	0.377808	-0.000305176	
3.3316	0.383606	0.00137329	
3.3316	0.384521	0.000305176	
3.3316	0.388489	0.000457764	
3.3316	0.391846	0.000457764	
3.33099	0.394287	0.000762939	
3.33069	0.397949	0.000152588	
3.3313	0.39978	0.000457764	
3.33191	0.402832	0.000457764	
3.3316	0.406799	0.000305176	
3.33191	0.409241	-0.000457764	
3.3316	0.412292	0.000915527	
3.3316	0.416565	0.000305176	
3.33069	0.419006	0.000610352	
3.3313	0.422058	0.000457764	
3.33099	0.423584	0.000610352	
3.33191	0.426941	0.000457764	
3.33099	0.431519	0.000915527	
3.3316	0.43335	0.000762939	
3.33191	0.437012	0.000457764	
3.33069	0.438538	-0.000152588	
3.33099	0.441589	0.00183105	
3.3316	0.446167	0.000457764	
3.3313	0.448608	0.000305176	
3.33099	0.451965	0.000305176	
3.3316	0.453491	0.000152588	
3.33008	0.456848	0.000457764	
3.32764	0.458069	0.000457764	
3.32703	0.462036	0.000305176	
3.32642	0.463257	0.000457764	
3.32672	0.466309	-0.000305176	
3.32642	0.470276	0.0012207	
3.32642	0.472717	0.000610352	
3.32642	0.476379	0.000610352	
3.32672	0.47821	0.000457764	
3.32642	0.480652	0.000305176	
3.32672	0.482483	0.000305176	
3.32672	0.48584	0.000305176	
3.32672	0.487366	0	
3.32672	0.490723	0.000152588	
3.32642	0.492554	-0.000152588	
3.32672	0.494995	0.0012207	
3.32611	0.496521	0.000457764	
3.32642	0.500488	0.000457764	
3.32642	0.502319	0.000457764	
3.32703	0.505981	0.000305176	
3.32642	0.507507	0.000762939	
3.32642	0.510559	0.000610352	
3.32611	0.513306	0.000457764	
3.32581	0.514832	0.000305176	
3.32642	0.516052	-0.000610352	
3.32733	0.517578	0.0012207	
3.32642	0.52002	0.000305176	
3.32672	0.522156	0.000762939	
3.32428	0.524597	0.000457764	
3.32214	0.526733	0.000610352	
3.32153	0.52948	0.000305176	
3.32153	0.531616	0.000610352	
3.32123	0.531616	0.000457764	
3.32092	0.535278	0.000305176	
3.32214	0.536194	-0.000457764	
3.32245	0.539856	0.00106812	
3.32153	0.541687	0.000152588	
3.32184	0.544739	0.000305176	
3.32153	0.54657	0.000457764	
3.32214	0.547485	0	
3.32153	0.549316	0.000457764	
3.32123	0.551453	0.000305176	
3.32123	0.550842	0.000305176	
3.32214	0.554504	0.000457764	
3.32184	0.556641	0	
3.32092	0.556641	0.00137329	
3.32153	0.559998	0.000457764	
3.32214	0.560303	0.000457764	
3.32153	0.56427	0.000457764	
3.32153	0.566101	0.000305176	
3.32184	0.566101	0.000457764	
3.32153	0.569458	0	
3.32214	0.570679	0.000152588	
3.32153	0.571594	0.000305176	
3.31909	0.57373	-0.000305176	
3.31635	0.575867	0.00106812	
3.31696	0.576782	0.000610352	
3.31696	0.576172	0.000457764	
3.31635	0.578308	0.000305176	
3.31604	0.580444	0.000610352	
3.31696	0.58136	0.000762939	
3.31665	0.584412	0.000610352	
3.31635	0.585327	0.000610352	
3.31696	0.586243	0.000305176	
3.31665	0.585327	-0.000305176	
3.31696	0.588684	0.000762939	
3.31635	0.591125	0.000457764	
3.31665	0.59082	0.000305176	
3.31665	0.591125	0.000152588	
3.31604	0.593872	0.000305176	
3.31665	0.595703	0.000457764	
3.31635	0.596619	0.000762939	
3.31665	0.596619	0.000915527	
3.31696	0.59845	0.000152588	
3.31635	0.600281	-0.000305176	
3.31665	0.600891	0.00137329	
3.31696	0.600891	0.000305176	
3.31635	0.600891	0.000305176	
3.31665	0.603638	0.000305176	
3.31696	0.605164	0.000152588	
3.31482	0.605774	0.000610352	
3.31238	0.606079	0.000152588	
3.31146	0.605469	0.000610352	
3.31146	0.608215	0.000305176	
3.31177	0.609741	-0.000457764	
3.31207	0.610352	0.00106812	
3.31177	0.610962	0.000152588	
3.31146	0.610962	0.000610352	
3.31116	0.613403	0.000610352	
3.31177	0.61554	0.000457764	
3.31116	0.61615	0.000305176	
3.31116	0.615845	0	
3.31177	0.615845	0.000152588	
3.31238	0.615234	0.000457764	
3.31177	0.61554	-0.000457764	
3.31207	0.617981	0.00152588	
3.31146	0.620422	0.000457764	
3.31177	0.620728	0.000610352	
3.31177	0.621338	0.000762939	
3.31207	0.621033	0.000305176	
3.30933	0.620728	0.000305176	
3.30719	0.620728	0.000610352	
3.30719	0.621033	0.000762939	
3.30719	0.620117	0.000457764	
3.30688	0.622864	-0.000610352	
3.30658	0.624695	0.000915527	
3.30719	0.625305	0.000152588	
3.3075	0.624695	0.000610352	
3.30688	0.625	0.000152588	
3.30688	0.625	0.000152588	
3.30627	0.625305	0.000305176	
3.30627	0.625305	0.000762939	
3.30658	0.624695	0.000915527	
3.30719	0.62561	0.000762939	
3.30719	0.625	-0.000457764	
3.30658	0.62561	0.00137329	
3.30688	0.625305	0.000457764	
3.30566	0.625305	0.000457764	
3.30719	0.62561	0.000457764	
3.30688	0.625	0.000152588	
3.30719	0.627747	0.000457764	
3.30627	0.629883	0.000305176	
3.30688	0.630493	0.000305176	
3.30475	0.630493	0.000457764	
3.30261	0.630188	-0.000152588	
3.30139	0.629883	0.00152588	
3.30109	0.629883	0.000762939	
3.302	0.630188	0.000610352	
3.30231	0.629883	0.000305176	
3.3017	0.630188	0.000610352	
3.302	0.630188	0.000457764	
3.302	0.629883	0.000152588	
3.30261	0.629272	0	
3.3017	0.630188	0.000152588	
3.302	0.629578	-0.000457764	
3.302	0.629578	0.00137329	
3.302	0.629883	0.000152588	
3.302	0.630493	0.000610352	
3.302	0.627441	0.000457764	
3.302	0.625305	0.000457764	
3.30109	0.625305	0.000305176	
3.30231	0.625305	0.000457764	
3.30231	0.62561	0.000457764	
3.3017	0.625305	0.000610352	
3.302	0.625916	-0.000457764	
3.302	0.62561	0.00106812	
3.3017	0.625305	0.000305176	
3.30109	0.625305	0.000457764	
3.30078	0.625305	0.000457764	
3.3017	0.625305	0.000457764	
3.30109	0.625	0.000457764	
3.302	0.625	0.000610352	
3.29987	0.624695	0.000762939	
3.29803	0.624695	0.000305176	
3.29712	0.625305	-0.000152588	
3.29681	0.625916	0.00137329	
3.29681	0.622559	0.000762939	
3.29712	0.621338	0.000457764	
3.29651	0.620117	0.000457764	
3.29712	0.620728	0.000305176	
3.29712	0.620728	0.000305176	
3.29712	0.620422	0.000305176	
3.29742	0.620117	0.000762939	
3.29742	0.621033	0.000457764	
3.29681	0.620728	-0.000457764	
3.2962	0.620728	0.00137329	
3.29681	0.617371	0.000305176	
3.29681	0.61554	0.000457764	
3.29651	0.615234	0.000152588	
3.29651	0.615234	0.000610352	
3.29681	0.61554	0.000305176	
3.29681	0.61615	0.000457764	
3.29651	0.615845	0.000305176	
3.29712	0.61554	0.000305176	
3.29712	0.612793	-0.000457764	
3.2962	0.611267	0.000915527	
3.29712	0.610962	0.000152588	
3.29681	0.610657	0.000457764	
3.29681	0.610352	0.000457764	
3.29681	0.610657	0.000305176	
3.29559	0.610657	0.000610352	
3.29285	0.608215	0.000457764	
3.29132	0.606079	0.000610352	
3.29102	0.605469	0.000305176	
3.29132	0.605469	-0.000305176	
3.29132	0.605774	0.00106812	
3.29132	0.605164	0.000152588	
3.29132	0.603027	0.000305176	
3.29224	0.601196	0.000457764	
3.29163	0.601196	0.000457764	
3.29224	0.599976	0.000457764	
3.29193	0.600586	0.000610352	
3.29163	0.601501	0.000915527	
3.29163	0.598145	0.000610352	
3.29163	0.596008	-0.000457764	
3.29163	0.595703	0.00137329	
3.29193	0.596008	0.000305176	
3.29193	0.595398	0.000610352	
3.29224	0.596008	0.000610352	
3.29132	0.593262	0.000152588	
3.29071	0.591736	0.000305176	
3.29193	0.59082	0.000305176	
3.29163	0.591125	0.000610352	
3.29163	0.59082	0.000152588	
3.29193	0.588684	-0.000152588	
3.29193	0.586548	0.00137329	
3.29254	0.586548	0.000457764	
3.29193	0.586548	0.000762939	
3.29163	0.586243	0.000305176	
3.29193	0.583496	0.000457764	
3.29132	0.581665	0.000457764	
3.29193	0.580444	0.000305176	
3.29193	0.58136	0.000152588	
3.29132	0.578918	0.000610352	
3.29224	0.576477	-0.000610352	
3.29224	0.576172	0.00106812	
3.28979	0.576477	0.000305176	
3.28766	0.576782	0.000610352	
3.28705	0.57373	0.000457764	
3.28674	0.571899	0.000305176	
3.28766	0.571594	0.000305176	
3.28735	0.571289	0.000762939	
3.28705	0.568848	0.000610352	
3.28674	0.567322	0.000457764	
3.28674	0.566711	-0.000762939	
3.28705	0.565796	0.00106812	
3.28674	0.563049	0.000457764	
3.28705	0.561218	0.000457764	
3.28674	0.561523	0.000457764	
3.28674	0.561523	0.000610352	
3.28644	0.558777	0.000762939	
3.28674	0.557251	0.000457764	
3.28674	0.556946	0.000762939	
3.28674	0.556335	0.000762939	
3.28705	0.553894	-0.000305176	
3.28705	0.552673	0.00137329	
3.28674	0.552063	0.000762939	
3.28705	0.551758	0.000457764	
3.28644	0.549316	0.000152588	
3.28735	0.54718	0.000152588	
3.28766	0.547791	0.000610352	
3.28674	0.54718	0.000457764	
3.28705	0.544434	0.000457764	
3.28705	0.542603	0.000610352	
3.28705	0.542603	0	
3.28705	0.53894	0.00137329	
3.28674	0.537109	0.000305176	
3.28674	0.537109	0.000305176	
3.28705	0.537415	0.000610352	
3.28705	0.534668	0.000457764	
3.28705	0.532532	0.000457764	
3.28674	0.531921	0.000152588	
3.28735	0.52948	0.000305176	
3.28491	0.527649	0.000305176	
3.28339	0.527344	-0.000305176	
3.28217	0.527344	0.0012207	
3.28156	0.524597	0.000152588	
3.28156	0.523071	0.000610352	
3.28186	0.522766	0.000457764	
3.28217	0.519409	0.000610352	
3.28186	0.518188	0.000152588	
3.28156	0.517883	0.000305176	
3.28186	0.514832	0.000457764	
3.28156	0.513	0.000305176	
3.28156	0.512695	-0.000457764	
3.28217	0.51178	0.0012207	
3.28186	0.510254	0.000457764	
3.28156	0.506897	0.000457764	
3.28186	0.507507	0.000457764	
3.28156	0.504456	0.000762939	
3.28186	0.503235	0.000457764	
3.28186	0.503845	0.000762939	
3.28217	0.500183	0.000915527	
3.28186	0.498352	0.000610352	
3.28186	0.498047	0	
3.28156	0.495605	0.00137329	
3.28186	0.492859	0.000457764	
3.28217	0.493164	0.000915527	
3.28217	0.490112	0.000457764	
3.28186	0.488586	0.000457764	
3.28247	0.488586	0.000152588	
3.28186	0.484924	0.000305176	
3.28186	0.483093	0.000610352	
3.28217	0.483398	0.000152588	
3.28247	0.480347	0	
3.28217	0.478821	0.0012207	
3.28247	0.478821	0.000152588	
3.28217	0.475769	0.000610352	
3.28217	0.473938	0.000152588	
3.28217	0.473022	0.000610352	
3.28247	0.470581	0.000610352	
3.28278	0.469055	0.000305176	
3.28217	0.46814	0	
3.28217	0.466003	0.000610352	
3.28156	0.463867	-0.000457764	
3.28217	0.463867	0.00137329	
3.28217	0.460205	0.000152588	
3.28186	0.45929	0.000457764	
3.28308	0.458679	0.000610352	
3.28156	0.455627	0.000457764	
3.28186	0.454407	0.000457764	
3.28186	0.454102	0.000610352	
3.28033	0.45105	0.000610352	
3.27789	0.449524	0.000305176	
3.27759	0.448608	-0.000610352	
3.27728	0.446167	0.0012207	
3.27728	0.444641	0.000152588	
3.27728	0.443726	0.000610352	
3.27698	0.441284	0.000457764	
3.27698	0.438843	0.000457764	
3.27728	0.439453	0.000457764	
3.27759	0.436401	0.000762939	
3.27667	0.434265	0.000457764	
3.27789	0.434265	0.000457764	
3.27759	0.431213	-0.000152588	
3.27698	0.429688	0.00152588	
3.27759	0.428772	0.000762939	
3.27728	0.426025	0.000305176	
3.27789	0.42511	0.000457764	
3.27728	0.421448	0.000305176	
3.27728	0.419312	0.000457764	
3.27759	0.419312	0.000305176	
3.27759	0.416565	0.000305176	
3.27759	0.414124	0.000305176	
3.27728	0.414429	-0.000305176	
3.27698	0.411987	0.0012207	
3.27728	0.409851	0.000762939	
3.27728	0.409546	0.000305176	
3.27698	0.406799	0.000457764	
3.2782	0.404358	0.000457764	
3.27759	0.404663	0.000305176	
3.27728	0.401917	0.000610352	
3.27759	0.400696	-0.000152588	
3.27789	0.396423	0.000152588	
3.27789	0.394897	-0.000610352	
3.27789	0.394592	0.000915527	
3.27728	0.392151	0.000610352	
3.27698	0.39093	0.000610352	
3.27728	0.390015	0.000610352	
3.27759	0.387573	0.000610352	
3.27759	0.386047	0.000457764	
3.27759	0.385132	0.000305176	
3.27789	0.38269	0.000762939	
3.27789	0.381165	0.000457764	
3.27728	0.377502	-0.000762939	
3.27789	0.375977	0.0012207	
3.27698	0.375366	0.000305176	
3.27698	0.37262	0.000305176	
3.27728	0.371094	0.000305176	
3.27789	0.370483	0.000610352	
3.27789	0.368042	0.000152588	
3.27759	0.366516	0.000762939	
3.27789	0.365295	0.000610352	
