model_ppg1.acq
0.5 msec/sample
3 channels
RSP, X, RSPEC-R
Volts
PPG, X, PPGED-R
Volts
ECG, Y, RSPEC-R
mV
CH1	CH2	CH13	
252377	252377	252377	
5.93506	0.0619507	0.000610352	
5.93597	0.0622559	0.000762939	
5.93903	0.062561	0.000762939	
5.93994	0.0622559	0.000457764	
5.94116	0.0616455	0.000610352	
5.94055	0.0622559	0.000305176	
5.94055	0.0628662	0.000305176	
5.9436	0.0622559	0.000457764	
5.94482	0.0622559	0.000305176	
5.94482	0.0622559	0.000305176	
5.94452	0.062561	0.000305176	
5.94574	0.0622559	0.000915527	
5.94849	0.0622559	0.000915527	
5.94971	0.0622559	0.000457764	
5.95093	0.0619507	0.000305176	
5.94971	0.062561	0.000457764	
5.95093	0.0628662	0.000915527	
5.95367	0.0619507	0.000305176	
5.95459	0.0622559	0	
5.9552	0.0622559	-0.000762939	
5.9552	0.0622559	-0.000152588	
5.95581	0.0622559	0.000610352	
5.95825	0.0616455	0.000305176	
5.96008	0.0622559	0	
5.96008	0.062561	0.000152588	
5.96069	0.062561	0.000610352	
5.96008	0.0622559	0.000762939	
5.961	0.0619507	0.000305176	
5.96344	0.0619507	0.000305176	
5.96497	0.0622559	0.000152588	
5.96527	0.0619507	0.000152588	
5.96497	0.0622559	0	
5.96558	0.062561	-0.000152588	
5.96893	0.0619507	-0.000152588	
5.96924	0.0622559	0.000152588	
5.96985	0.0616455	0.000152588	
5.96954	0.0622559	0.000152588	
5.97015	0.062561	0.000457764	
5.97321	0.0622559	0.00106812	
5.97504	0.062561	0.00167847	
5.97473	0.062561	0.000305176	
5.97504	0.0622559	0.000762939	
5.97656	0.0628662	0.000457764	
5.97839	0.0622559	0.000915527	
5.97961	0.0622559	0.000457764	
5.97931	0.0619507	0.000457764	
5.97992	0.0622559	0.000152588	
5.98053	0.0622559	0.000610352	
5.98358	0.0619507	0.000457764	
5.9845	0.0619507	0.000305176	
5.9848	0.0619507	0.000457764	
5.9848	0.0622559	0.0012207	
5.98511	0.0628662	0.000915527	
5.98541	0.0628662	0.000762939	
5.98846	0.0622559	0.000457764	
5.98907	0.0622559	0.000762939	
5.98999	0.0622559	0.000762939	
5.98877	0.0622559	0.000457764	
5.99091	0.062561	-0.000305176	
5.99335	0.062561	-0.000610352	
5.99457	0.0619507	0.000152588	
5.99426	0.0622559	0.000457764	
5.99487	0.0628662	0	
5.99487	0.062561	0.000305176	
5.99731	0.0616455	0.000305176	
5.99976	0.062561	0.000762939	
5.99945	0.0622559	0.000762939	
5.99915	0.0628662	0.000457764	
6.00006	0.0619507	0.000457764	
6.00311	0.062561	0.000305176	
6.00372	0.0622559	0.000152588	
6.00403	0.0622559	0.000152588	
6.00403	0.0622559	-0.000152588	
6.00433	0.0622559	0.000457764	
6.00494	0.0622559	0	
6.00739	0.0619507	0.000457764	
6.00952	0.0619507	0.000305176	
6.00952	0.0628662	0.000305176	
6.00952	0.062561	0.00106812	
6.00952	0.0628662	0.00137329	
6.01257	0.0628662	0.000610352	
6.0144	0.0613403	0.000915527	
6.0141	0.062561	0.000305176	
6.0141	0.062561	0.000762939	
6.01471	0.0619507	0.000762939	
6.01471	0.0619507	0.000457764	
6.01776	0.0622559	0.000305176	
6.01898	0.0619507	0.000305176	
6.01898	0.062561	0.000762939	
6.01959	0.0622559	0.000305176	
6.0202	0.062561	0.000305176	
6.02264	0.062561	0.00106812	
6.02386	0.062561	0.000457764	
6.02356	0.0616455	0.000610352	
6.02478	0.062561	0.000457764	
6.02417	0.0622559	0.000762939	
6.02478	0.0616455	0.000762939	
6.02722	0.0619507	0.000305176	
6.02814	0.0619507	0	
6.02844	0.0622559	-0.000610352	
6.02905	0.0622559	0	
6.02966	0.0631714	0.000610352	
6.03271	0.0619507	0.000152588	
6.03333	0.0619507	0	
6.03302	0.0622559	0.000305176	
6.03333	0.062561	0.00106812	
6.03424	0.0619507	0.000457764	
6.03516	0.0622559	0.000457764	
6.03729	0.062561	0.000610352	
6.03851	0.062561	0.000305176	
6.03882	0.062561	-0.000152588	
6.03882	0.062561	0.000152588	
6.03851	0.0619507	-0.000152588	
6.03973	0.0619507	0.000152588	
6.04248	0.0622559	0.000152588	
6.04309	0.0622559	0.000152588	
6.0434	0.0622559	0.000305176	
6.0437	0.0622559	0.000457764	
6.04462	0.0619507	0.0012207	
6.04706	0.0619507	0.0012207	
6.04797	0.0622559	0.000457764	
6.04858	0.062561	0.000762939	
6.04828	0.062561	0.000610352	
6.04797	0.062561	0.000915527	
6.04919	0.0619507	0.000305176	
6.05164	0.062561	0.000152588	
6.05316	0.0619507	0.000152588	
6.05347	0.062561	0.000762939	
6.05377	0.062561	0	
6.05377	0.0619507	0.000305176	
6.05469	0.0619507	0.000457764	
6.05743	0.0619507	0.0012207	
6.05835	0.0622559	0.0012207	
6.05927	0.0622559	0.000457764	
6.05957	0.0622559	0.000457764	
6.05804	0.0628662	0.000762939	
6.05957	0.0622559	0.000762939	
6.06262	0.062561	0.000457764	
6.06323	0.0619507	0	
6.06323	0.062561	-0.000762939	
6.06323	0.062561	0	
6.06384	0.062561	0.000762939	
6.06476	0.0622559	0.000152588	
6.06628	0.0619507	0.000152588	
6.06842	0.0622559	0.000305176	
6.06812	0.0622559	0.000762939	
6.06842	0.0628662	0.000457764	
6.06873	0.062561	0.000305176	
6.06964	0.0619507	0.000305176	
6.07269	0.062561	0.000762939	
6.0733	0.0619507	0.000152588	
6.07361	0.0619507	-0.000152588	
6.07361	0.0622559	-0.000152588	
6.07422	0.062561	0	
6.07483	0.0622559	0	
6.07697	0.0619507	0.000152588	
6.07819	0.0628662	0.000305176	
6.07819	0.0619507	0.000305176	
6.0791	0.062561	0.00106812	
6.07849	0.0622559	0.00137329	
6.07971	0.0619507	0.000457764	
6.08154	0.0628662	0.00106812	
6.08337	0.0628662	0.000610352	
6.08429	0.0622559	0.000152588	
6.08368	0.0619507	0.000457764	
6.08307	0.0622559	0.000457764	
6.08459	0.0619507	0.000152588	
6.08643	0.0619507	0.000762939	
6.08856	0.0622559	0.000152588	
6.08826	0.0619507	0.000152588	
6.08826	0.0613403	0.000305176	
6.08795	0.0628662	0.000915527	
6.08856	0.0616455	0.000762939	
6.09192	0.062561	0.000457764	
6.09253	0.0619507	0.000762939	
6.09344	0.0622559	0.000457764	
6.09314	0.0613403	0.00106812	
6.09283	0.0619507	0.000457764	
6.09406	0.062561	0	
6.09619	0.0622559	-0.000762939	
6.09741	0.0619507	0	
6.09802	0.0628662	0.000610352	
6.09772	0.0619507	0.000457764	
6.09833	0.062561	0	
6.09863	0.0616455	0.000457764	
6.10168	0.062561	0.000610352	
6.10321	0.0628662	0.000610352	
6.10291	0.0622559	0	
6.10352	0.062561	0.000610352	
6.10352	0.0622559	0.000457764	
6.10291	0.0622559	0	
6.10382	0.0622559	0.000305176	
6.10657	0.0628662	0	
6.10809	0.062561	0.000305176	
6.1084	0.0622559	0.000152588	
6.1084	0.0619507	0	
6.10748	0.0616455	-0.000152588	
6.10901	0.0628662	0.000762939	
6.11176	0.0622559	0.0012207	
6.11267	0.0622559	0.00137329	
6.11298	0.0622559	0.000457764	
6.11298	0.0637817	0.000762939	
6.11267	0.065918	0.000762939	
6.11389	0.0674438	0.000915527	
6.1142	0.0668335	0.000762939	
6.11603	0.0674438	0.000305176	
6.11725	0.0668335	0.000305176	
6.11847	0.0671387	0.000457764	
6.11755	0.0674438	0	
6.11755	0.0671387	0.000457764	
6.11908	0.0671387	0.000305176	
6.12213	0.067749	0.0012207	
6.12244	0.067749	0.000762939	
6.12366	0.0671387	0.000457764	
6.12305	0.0671387	0.000457764	
6.12305	0.0671387	0.000610352	
6.12305	0.0671387	0.000762939	
6.12366	0.0674438	0.000457764	
6.1264	0.0665283	-0.000305176	
6.12732	0.0665283	-0.000915527	
6.12823	0.0671387	0	
6.12823	0.067749	0.000610352	
6.12885	0.0668335	0	
6.12793	0.0671387	0	
6.12885	0.067749	0.000152588	
6.13159	0.0671387	0.000457764	
6.1319	0.0674438	0.000762939	
6.13342	0.0674438	0.000152588	
6.13312	0.0674438	0.000762939	
6.13373	0.0674438	0.000610352	
6.13251	0.0671387	0.000305176	
6.13403	0.0674438	0.000152588	
6.13617	0.0668335	0	
6.1377	0.0671387	0.000152588	
6.1377	0.0674438	0.000457764	
6.13831	0.0671387	-0.000152588	
6.1377	0.0671387	0.000305176	
6.13831	0.0665283	0.000457764	
6.13861	0.0674438	0.000915527	
6.14105	0.067749	0.00152588	
6.14258	0.0680542	0.000457764	
6.14258	0.0674438	0.000915527	
6.14319	0.0674438	0.000915527	
6.14288	0.0674438	0.000457764	
6.14349	0.0665283	0.000610352	
6.14319	0.0671387	0.000305176	
6.14624	0.0674438	0.000152588	
6.14777	0.0671387	0.000915527	
6.14807	0.067749	0.000152588	
6.14807	0.0671387	0.000457764	
6.14746	0.0668335	0	
6.14807	0.0671387	0.0012207	
6.14777	0.0668335	0.00106812	
6.15051	0.0665283	0.000762939	
6.15234	0.0665283	0.000915527	
6.15234	0.0668335	0.000610352	
6.15326	0.0674438	0.000915527	
6.15265	0.0674438	0.000610352	
6.15295	0.0668335	-0.000457764	
6.15387	0.0671387	-0.000305176	
6.1554	0.0674438	-0.000152588	
6.15692	0.0683594	0.000610352	
6.15784	0.071106	0.000152588	
6.15845	0.0723267	0	
6.15692	0.0726318	0.000610352	
6.15753	0.0723267	0.000762939	
6.15692	0.0723267	0.000610352	
6.15784	0.0723267	0.000152588	
6.16089	0.0723267	0.000610352	
6.1618	0.0723267	0.000457764	
6.16241	0.0720215	-0.000152588	
6.16211	0.0720215	-0.000305176	
6.16211	0.0714111	0	
6.16302	0.071106	0	
6.16333	0.0717163	0.000152588	
6.16608	0.0717163	0.000152588	
6.1673	0.0720215	0.000305176	
6.1673	0.0723267	-0.000152588	
6.1673	0.0723267	0.000915527	
6.16699	0.0720215	0.00137329	
6.16699	0.0720215	0.000457764	
6.1673	0.0723267	0.000457764	
6.16821	0.0717163	0.000762939	
6.17065	0.0723267	0.000152588	
6.17188	0.0717163	0.000610352	
6.17188	0.0723267	0.000152588	
6.17249	0.0720215	0.000305176	
6.17249	0.072937	0.000457764	
6.17218	0.0723267	0.000152588	
6.17279	0.0720215	0	
6.17371	0.071106	0.000457764	
6.17584	0.0720215	0.000915527	
6.17645	0.0720215	0.000762939	
6.17645	0.0726318	0.000610352	
6.17737	0.0720215	0.000762939	
6.17645	0.0723267	0.000457764	
6.17706	0.0726318	0.000610352	
6.17737	0.0726318	0.000457764	
6.17859	0.0723267	-0.000915527	
6.18011	0.0714111	-0.000457764	
6.18073	0.0723267	-0.000152588	
6.18195	0.0726318	0.000305176	
6.18256	0.0735474	0	
6.18225	0.0762939	0	
6.18103	0.0778198	0.000457764	
6.18225	0.0772095	0.000305176	
6.18164	0.0769043	0.000762939	
6.18286	0.0769043	0.000152588	
6.185	0.0772095	0.000457764	
6.18652	0.0772095	0.000457764	
6.18713	0.0765991	-0.000305176	
6.18713	0.0769043	0	
6.18622	0.0769043	0.000152588	
6.18744	0.0772095	0.000152588	
6.18622	0.0769043	0.000305176	
6.18713	0.0775146	0.000152588	
6.18652	0.0772095	0.000305176	
6.18744	0.0765991	0.000457764	
6.18683	0.0769043	0.00137329	
6.18744	0.0772095	0.00106812	
6.18683	0.0765991	0.000762939	
6.18683	0.0765991	0.000762939	
6.18713	0.0775146	0.000762939	
6.18713	0.0772095	0.000305176	
6.18744	0.0769043	0.00106812	
6.18713	0.0769043	0.000152588	
6.18713	0.078125	0.000152588	
6.18652	0.0805664	0.000152588	
6.18805	0.0811768	0.000305176	
6.19324	0.0811768	0.000305176	
6.19629	0.0811768	0.000610352	
6.19751	0.0814819	0.000762939	
6.19995	0.0808716	0.000457764	
6.20148	0.0817871	0	
6.20178	0.0808716	0.000457764	
6.20178	0.0814819	0.000457764	
6.203	0.0808716	0.000610352	
6.20148	0.0811768	0.000305176	
6.20148	0.0814819	0	
6.20056	0.0808716	-0.000762939	
6.20148	0.0805664	0.000152588	
6.20239	0.0811768	0.000152588	
6.20483	0.0817871	0.000152588	
6.20636	0.0808716	0.000152588	
6.20667	0.0805664	0.000457764	
6.20636	0.0811768	0.000457764	
6.20667	0.0823975	0.000457764	
6.20667	0.085144	0	
6.20605	0.0854492	0.000305176	
6.20728	0.0869751	0.000457764	
6.20697	0.0857544	0.000152588	
6.20667	0.0854492	-0.000152588	
6.20636	0.0860596	0	
6.20728	0.0857544	0	
6.20697	0.0863647	0.000762939	
6.20972	0.0863647	0.000457764	
6.21063	0.0860596	-0.000152588	
6.21246	0.0863647	0.000457764	
6.21521	0.0860596	0.0012207	
6.21643	0.0857544	0.00137329	
6.21613	0.0857544	0.000610352	
6.21674	0.0860596	0.000305176	
6.21643	0.0860596	0.000915527	
6.21674	0.0857544	0.000152588	
6.21704	0.0875854	0.000610352	
6.21613	0.0897217	0.000305176	
6.21704	0.0909424	0.000152588	
6.21674	0.0915527	0.000305176	
6.21765	0.0909424	0	
6.22009	0.0915527	0.000305176	
6.22131	0.0909424	0.000457764	
6.22131	0.0912476	0.000610352	
6.22131	0.0912476	0.000457764	
6.22162	0.0909424	0.000152588	
6.22162	0.0909424	0.000457764	
6.22131	0.0915527	0.000610352	
6.22192	0.0912476	0.000915527	
6.22223	0.0915527	0.000457764	
6.22162	0.0909424	-0.000457764	
6.22162	0.0912476	-0.000762939	
6.22131	0.0915527	0.000305176	
6.22192	0.0921631	0.000152588	
6.22467	0.0946045	0.000457764	
6.2262	0.0952148	0	
6.22681	0.0961304	0.000305176	
6.22711	0.09552	0.000457764	
6.2265	0.0964355	0.000915527	
6.2265	0.0958252	0.000152588	
6.2262	0.0961304	0.000610352	
6.2262	0.09552	0.000152588	
6.22681	0.0961304	0.000152588	
6.2265	0.0961304	0	
6.22681	0.09552	0	
6.2262	0.0964355	-0.000152588	
6.23047	0.0952148	0.000305176	
6.23138	0.09552	0.000152588	
6.23138	0.0958252	0.000152588	
6.23199	0.0961304	0.000305176	
6.23199	0.0964355	0.0012207	
6.23138	0.0967407	0.00137329	
6.23138	0.0997925	0.000762939	
6.23169	0.100708	0.000915527	
6.23138	0.100403	0.000762939	
6.23199	0.100403	0.000457764	
6.23108	0.101013	0.000152588	
6.23169	0.101013	0.000152588	
6.23199	0.101624	0.000152588	
6.23474	0.101318	0.000457764	
6.23596	0.101013	0.000305176	
6.23688	0.101013	0	
6.23657	0.100708	0.000457764	
6.23627	0.100708	0.000915527	
6.23566	0.100403	0.000305176	
6.23688	0.100708	0.000457764	
6.23688	0.101318	0.000915527	
6.23657	0.100708	0	
6.23627	0.101929	0.000762939	
6.23657	0.10498	0.000457764	
6.23627	0.105286	-0.000305176	
6.23566	0.105591	-0.000610352	
6.23688	0.106201	0.000152588	
6.24023	0.105286	0.000305176	
6.24084	0.105896	0.000152588	
6.24207	0.106201	0.000152588	
6.24115	0.105896	0.000610352	
6.24146	0.105896	0.000610352	
6.24115	0.106201	0.000305176	
6.24084	0.105591	0.000457764	
6.24146	0.105896	0.000305176	
6.24115	0.105286	0.000762939	
6.24084	0.105896	0	
6.24115	0.105591	-0.000152588	
6.24176	0.106812	0	
6.24115	0.110474	0.000305176	
6.24084	0.110474	0.000305176	
6.24237	0.110168	0.000305176	
6.2442	0.110168	-0.000152588	
6.24603	0.110474	0.000457764	
6.24634	0.110779	0.0012207	
6.24634	0.111084	0.0012207	
6.24634	0.110779	0.000305176	
6.24603	0.110474	0.000762939	
6.24664	0.111084	0.000457764	
6.24634	0.110474	0.000152588	
6.24573	0.110474	0.000457764	
6.24634	0.110168	0	
6.24573	0.110779	-0.000152588	
6.24603	0.110474	0.000457764	
6.24603	0.11261	0.000152588	
6.24634	0.114441	0	
6.24634	0.115967	0.000610352	
6.24664	0.115051	0.000762939	
6.24939	0.115967	0.000152588	
6.25092	0.115967	0.000610352	
6.25153	0.115356	0.000610352	
6.25183	0.115662	0.000762939	
6.25153	0.115356	0.000610352	
6.25092	0.115662	0.000457764	
6.25092	0.115967	-0.000305176	
6.25061	0.116577	-0.000762939	
6.25122	0.115356	0	
6.25061	0.115662	0	
6.25153	0.115662	0	
6.25153	0.116882	-0.000152588	
6.25214	0.119629	0.000305176	
6.25153	0.120239	0.000762939	
6.25031	0.120544	0.000305176	
6.25092	0.12085	0.000305176	
6.25092	0.120544	0.000305176	
6.25153	0.12085	0.000610352	
6.25427	0.12085	0	
6.25549	0.120544	-0.000152588	
6.25671	0.119934	0.000152588	
6.2561	0.12085	0.000152588	
6.25671	0.119934	0.000305176	
6.25549	0.12085	-0.000152588	
6.2561	0.12085	-0.000152588	
6.25549	0.120544	0.000610352	
6.2558	0.121155	0.00137329	
6.2558	0.124512	0.00152588	
6.25671	0.125732	0.000457764	
6.2558	0.125427	0.000610352	
6.2558	0.125732	0.000305176	
6.2561	0.125122	0.000305176	
6.2558	0.125122	0.000305176	
6.25671	0.125122	0.000457764	
6.2561	0.126038	-0.000305176	
6.25641	0.125427	0.000915527	
6.25549	0.125427	0.000457764	
6.2561	0.125732	0.000152588	
6.25671	0.125122	0.000610352	
6.25977	0.125122	0.000762939	
6.26099	0.126038	0.000762939	
6.26068	0.126953	0.000610352	
6.26068	0.1297	0.000915527	
6.26068	0.130615	0.000457764	
6.26068	0.13031	0.000915527	
6.26129	0.130005	0.000457764	
6.26099	0.130005	-0.000305176	
6.26068	0.130005	-0.000762939	
6.26038	0.130005	0.000457764	
6.26099	0.130005	0	
6.2616	0.130005	0.000152588	
6.26007	0.131226	0.000305176	
6.26099	0.130615	0.000152588	
6.26099	0.13031	0.000610352	
6.26068	0.13031	0.000305176	
6.26068	0.131226	0.000457764	
6.26068	0.130615	0.000457764	
6.2616	0.130615	0.000457764	
6.26099	0.131531	0	
6.26099	0.134277	-0.000457764	
6.26068	0.135498	0.000305176	
6.26099	0.134583	-0.000152588	
6.26099	0.135193	0.000305176	
6.26129	0.135193	0.000152588	
6.26495	0.134888	0	
6.26587	0.135498	0.000610352	
6.26678	0.135803	0.00137329	
6.26617	0.135498	0.00152588	
6.26556	0.135193	0.000762939	
6.26587	0.134583	0.000610352	
6.26556	0.134888	0.000610352	
6.26587	0.134888	0.000152588	
6.26648	0.135193	0.000457764	
6.26617	0.134583	0.000305176	
6.26556	0.134888	0	
6.26556	0.134888	0.000762939	
6.26587	0.135498	0.000457764	
6.26617	0.135498	0.000305176	
6.26617	0.134583	0.000457764	
6.26587	0.137024	0.000762939	
6.26648	0.13916	0.000610352	
6.26587	0.139771	0.000305176	
6.26648	0.140381	0.000762939	
6.26617	0.140076	0.000457764	
6.26617	0.140076	0.000915527	
6.26617	0.140686	0.000305176	
6.26587	0.140076	-0.000457764	
6.26617	0.140076	-0.000305176	
6.26526	0.140076	0	
6.26556	0.140381	0.000305176	
6.26617	0.140076	0.000152588	
6.26556	0.139771	-0.000152588	
6.26465	0.140381	0.000457764	
6.26526	0.140991	0.000305176	
6.26587	0.140076	0.000457764	
6.26587	0.140076	0.000152588	
6.26648	0.140381	0.000610352	
6.26587	0.140076	0.000762939	
6.26587	0.139771	-0.000305176	
6.26617	0.140381	-0.000152588	
6.26709	0.140686	0.000152588	
6.26617	0.139771	0.000305176	
6.2674	0.140686	0.000457764	
6.26953	0.139771	0.000457764	
6.27014	0.140076	0.000152588	
6.27106	0.140686	0.000457764	
6.27167	0.140381	0.0012207	
6.27197	0.139771	0.00137329	
6.27106	0.140076	0.000305176	
6.27106	0.139771	0.000762939	
6.27167	0.140076	0.000457764	
6.27106	0.139465	0.000152588	
6.27075	0.140076	0.000152588	
6.27075	0.140381	0.000610352	
6.27014	0.140381	0.000305176	
6.27075	0.140076	0.000610352	
6.27136	0.140076	0.000305176	
6.27106	0.139771	0.000152588	
6.27075	0.139465	0.000305176	
6.27106	0.140381	0.00152588	
6.27106	0.139771	0.000610352	
6.27136	0.140686	0.000457764	
6.27075	0.140076	0.000457764	
6.27075	0.140686	0.000610352	
6.27075	0.139771	0.00106812	
6.27136	0.140381	0.000152588	
6.27075	0.140686	-0.000305176	
6.27075	0.140381	-0.000610352	
6.27075	0.140076	0.000152588	
6.27106	0.140076	0.000457764	
6.27045	0.140991	0	
6.27045	0.140381	0	
6.27106	0.140076	0.000152588	
6.27075	0.140381	0.000305176	
6.27045	0.140076	0.000305176	
6.27075	0.140076	-0.000152588	
6.27106	0.140076	0.000762939	
6.27136	0.140381	0.000152588	
6.27106	0.140381	-0.000152588	
6.27014	0.140076	-0.000152588	
6.27075	0.139465	0.000152588	
6.27136	0.139771	0.000152588	
6.27075	0.140686	0.000152588	
6.27075	0.140076	0.000305176	
6.27106	0.139465	0	
6.27106	0.140381	0.000457764	
6.27075	0.140686	0.000762939	
6.27106	0.140076	0.0012207	
6.27136	0.139465	0.000305176	
6.27106	0.140381	0.000762939	
6.27075	0.140076	0.000610352	
6.27075	0.140076	0.000762939	
6.27075	0.140076	0.000457764	
6.27075	0.140381	0.000457764	
6.27075	0.140076	0	
6.27136	0.140076	0.000610352	
6.27045	0.139771	0	
6.27075	0.139465	0.000457764	
6.27075	0.140076	0.000457764	
6.27167	0.140076	0.0012207	
6.27075	0.140076	0.000457764	
6.27075	0.140686	0.000305176	
6.27075	0.139771	0.000457764	
6.27106	0.140381	0.000762939	
6.27075	0.140686	0.000610352	
6.27075	0.140381	0.000305176	
6.27075	0.139771	-0.000305176	
6.27075	0.140686	-0.000152588	
6.27075	0.140991	0.000152588	
6.27136	0.140076	0.000305176	
6.27075	0.140381	-0.000152588	
6.27106	0.139465	0	
6.27075	0.140381	0.000457764	
6.27106	0.140381	0.000610352	
6.27106	0.140381	0.000610352	
6.27075	0.138855	0.000305176	
6.27075	0.135803	0.000457764	
6.27106	0.135498	0.000305176	
6.27045	0.135498	-0.000152588	
6.27075	0.134888	-0.000152588	
6.27045	0.135193	0.000305176	
6.27106	0.134277	0	
6.27106	0.134888	0.000305176	
6.27136	0.135193	0	
6.27045	0.135193	-0.000152588	
6.27075	0.135193	0	
6.27014	0.134888	0.00106812	
6.27106	0.134888	0.0012207	
6.27075	0.134583	0.000305176	
6.27136	0.135498	0.000762939	
6.27045	0.135498	0.000457764	
6.27106	0.134888	0.000305176	
6.27106	0.135193	0.000610352	
6.27106	0.135193	0.000457764	
6.27106	0.134583	0.000152588	
6.27106	0.135803	0.000915527	
6.27106	0.134888	0.000305176	
6.27167	0.133667	0.000152588	
6.27167	0.131226	0.000457764	
6.27136	0.130005	0.00152588	
6.27075	0.13031	0.000457764	
6.27106	0.13031	0.000610352	
6.27075	0.131226	0.000457764	
6.27106	0.13031	0.000305176	
6.27106	0.1297	0.000610352	
6.27106	0.13031	0.000305176	
6.27045	0.130005	-0.000610352	
6.27106	0.1297	-0.000305176	
6.27075	0.13031	0	
6.27075	0.13031	0.000457764	
6.27167	0.130615	0	
6.27075	0.130005	0	
6.27075	0.130615	0.000305176	
6.27075	0.129395	0.000610352	
6.27136	0.126648	0.000305176	
6.27075	0.125122	0.000305176	
6.27136	0.125122	0.000305176	
6.27136	0.125427	0.000457764	
6.27075	0.125122	0	
6.27045	0.126038	-0.000152588	
6.27075	0.125122	0.000457764	
6.27075	0.125122	-0.000152588	
6.27106	0.125732	0.000305176	
6.27106	0.125427	0.000152588	
6.27136	0.125732	0.000305176	
6.27136	0.125427	0.000305176	
6.27106	0.124817	0.00106812	
6.27075	0.12146	0.0012207	
6.27167	0.12085	0.000457764	
6.27075	0.120239	0.000610352	
6.27167	0.121155	0.000610352	
6.27136	0.120544	0.000152588	
6.27106	0.12085	0.000610352	
6.27045	0.120544	0.000457764	
6.27136	0.120239	0.000152588	
6.27075	0.120239	0.000762939	
6.27014	0.121155	0.000305176	
6.27075	0.120544	0.000457764	
6.27045	0.119934	0.000610352	
6.27075	0.116882	0.0012207	
6.27136	0.115356	0.000610352	
6.27075	0.115356	0.000305176	
6.27136	0.115051	0.000457764	
6.27075	0.115662	0.000152588	
6.27106	0.115662	0.000457764	
6.27045	0.115662	0.000305176	
6.27045	0.115662	-0.000457764	
6.27136	0.115662	-0.000305176	
6.27045	0.115967	0.000305176	
6.27136	0.114441	0.000305176	
6.27075	0.111389	-0.000152588	
6.27045	0.111084	0.000305176	
6.27045	0.110474	0.000610352	
6.26709	0.110474	0.000457764	
6.26648	0.110168	0.000457764	
6.26556	0.110168	0.000152588	
6.26617	0.110474	0.000762939	
6.26648	0.111084	0.000762939	
6.26587	0.111084	0	
6.26678	0.108948	-0.000152588	
6.26617	0.106812	0	
6.26648	0.10498	0.000152588	
6.26587	0.105591	0.000457764	
6.26587	0.105591	0.000457764	
6.26648	0.105896	0.000305176	
6.26587	0.106201	0.000305176	
6.26587	0.105286	0.0012207	
6.26556	0.106201	0.00137329	
6.26587	0.10437	0.000305176	
6.26648	0.10498	0.000915527	
6.26556	0.101318	0.000762939	
6.26648	0.100708	0.000152588	
6.26587	0.101013	0.000610352	
6.26617	0.0997925	0.000305176	
6.26617	0.101013	0.000305176	
6.26556	0.100708	0.000152588	
6.26587	0.101013	0.000152588	
6.26556	0.100708	0.000457764	
6.26587	0.0994873	0.000305176	
6.26556	0.0967407	0.00106812	
6.26617	0.0964355	0.000610352	
6.26556	0.0958252	0.000457764	
6.26648	0.0961304	0.000457764	
6.26556	0.0961304	0.000762939	
6.26587	0.09552	0.000762939	
6.26617	0.0958252	0.000305176	
6.26617	0.0964355	-0.000305176	
6.26587	0.0952148	-0.000457764	
6.26617	0.0918579	-0.000152588	
6.26617	0.0909424	0.000152588	
6.26648	0.0906372	0.000457764	
6.26617	0.0906372	0	
6.26617	0.0909424	0.000457764	
6.26648	0.0915527	0.000152588	
6.26617	0.0906372	0.000305176	
6.26678	0.0897217	0.000305176	
6.26495	0.0869751	0.000610352	
6.26221	0.0863647	0.000610352	
6.26099	0.0863647	-0.000457764	
6.26038	0.0854492	0	
6.26129	0.0863647	-0.000305176	
6.26068	0.0863647	0	
6.26099	0.0869751	0.000305176	
6.26007	0.0857544	0	
6.26129	0.0823975	0.000152588	
6.2616	0.0811768	0	
6.26099	0.0814819	0.00137329	
6.26068	0.0808716	0.0012207	
6.26038	0.0814819	0.000305176	
6.26099	0.0811768	0.000762939	
6.26129	0.0811768	0.000457764	
6.26068	0.0808716	0.000610352	
6.2616	0.0784302	0.000305176	
6.26099	0.0775146	0.000305176	
6.26129	0.0769043	0.000305176	
6.26129	0.0775146	0.000762939	
6.26007	0.0762939	0.000305176	
6.2616	0.0775146	0.000305176	
6.26129	0.0772095	0.000457764	
6.26099	0.0762939	0.0012207	
6.26129	0.0732422	0.000610352	
6.2616	0.0720215	0.000457764	
6.26129	0.0720215	0.000915527	
6.2616	0.072937	0.000610352	
6.26129	0.0732422	0.000610352	
6.26068	0.0723267	0	
6.26099	0.0720215	-0.000305176	
6.26129	0.071106	-0.000610352	
6.26099	0.067749	-0.000152588	
6.2616	0.0668335	0.000152588	
6.26007	0.0671387	0.000457764	
6.25763	0.0674438	0	
6.25549	0.0674438	0.000305176	
6.25641	0.0668335	0.000305176	
6.2561	0.0671387	0.000305176	
6.2561	0.0665283	0.000152588	
6.2558	0.0628662	0.000305176	
6.2561	0.062561	0.000457764	
6.25641	0.062561	-0.000152588	
6.25671	0.0619507	-0.000152588	
6.2558	0.0619507	0.000152588	
6.25641	0.0619507	0.000152588	
6.2561	0.062561	0.000457764	
6.2561	0.0616455	0.000152588	
6.2561	0.0579834	0	
6.2561	0.057373	0.000305176	
6.25641	0.057373	0.00137329	
6.2561	0.057373	0.0012207	
6.2558	0.057373	0.000305176	
6.25641	0.0570679	0.000610352	
6.25641	0.057373	0.000457764	
6.25671	0.0561523	0.000305176	
6.2558	0.0531006	0.000152588	
6.2561	0.0524902	0.000457764	
6.25671	0.0518799	0	
6.2561	0.0518799	0.000152588	
6.2561	0.0524902	0.000305176	
6.2561	0.0524902	0.000305176	
6.2561	0.0515747	0.000457764	
6.25519	0.0488281	0.00167847	
6.25244	0.0479126	0.000305176	
6.25183	0.0473022	0.000457764	
6.25153	0.0469971	0.0012207	
6.25061	0.0473022	0.000610352	
6.25122	0.0482178	0.000610352	
6.25031	0.0476074	0.000305176	
6.25061	0.0476074	-0.000457764	
6.25122	0.0463867	-0.000457764	
6.25122	0.0439453	0	
6.25122	0.0427246	0.000305176	
6.25153	0.0424194	0.000152588	
6.25122	0.0427246	0	
6.25092	0.0427246	0.000610352	
6.25031	0.0424194	0.000610352	
6.25092	0.0427246	0.000152588	
6.25061	0.0421143	0.000457764	
6.25092	0.038147	0.000305176	
6.25061	0.0378418	0.000762939	
6.25153	0.0375366	0	
6.25092	0.0372314	-0.000457764	
6.25122	0.0378418	0.000305176	
6.25153	0.0378418	0	
6.25122	0.038147	0	
6.25122	0.0363159	-0.000152588	
6.25061	0.0341797	0	
6.24817	0.032959	0.000152588	
6.24634	0.0326538	0.0012207	
6.24664	0.0326538	0.0012207	
6.24573	0.0323486	0.000152588	
6.24634	0.0332642	0.000915527	
6.24634	0.0323486	0.000305176	
6.24573	0.032959	0.000152588	
6.24664	0.0320435	0.000457764	
6.24634	0.0292969	0.000457764	
6.24695	0.0280762	0.000457764	
6.24603	0.0286865	0.000457764	
6.24664	0.027771	0.000457764	
6.24664	0.027771	0.000610352	
6.24695	0.0280762	0.000152588	
6.24634	0.0280762	0.0012207	
6.24634	0.0274658	0.000457764	
6.24603	0.0262451	0.000457764	
6.24634	0.0241089	0.00106812	
6.24634	0.022583	0.000762939	
6.24634	0.0231934	0.000457764	
6.24664	0.0231934	0.000305176	
6.24634	0.0228882	-0.000305176	
6.24542	0.0228882	-0.000305176	
6.24542	0.0234985	0.000305176	
6.24268	0.0231934	0.000305176	
6.24176	0.0213623	0	
6.24146	0.0192261	0	
6.24146	0.0183105	0.000457764	
6.24115	0.0180054	0.000305176	
6.24115	0.0183105	0.000305176	
6.24207	0.0183105	0.000152588	
6.24115	0.0180054	0.000610352	
6.24176	0.0186157	0.000152588	
6.24084	0.0177002	0	
6.24176	0.017395	-0.000457764	
6.24115	0.017395	0	
6.24084	0.0137329	0.000305176	
6.24176	0.0128174	0.000152588	
6.24084	0.0131226	0.000305176	
6.24146	0.0131226	0.000152588	
6.24146	0.0128174	0.000610352	
6.24146	0.0131226	0.000915527	
6.24146	0.0131226	0.00167847	
6.24146	0.0134277	0.000305176	
6.24084	0.0131226	0.000610352	
6.24054	0.0128174	0.000305176	
6.2381	0.0115967	0.000305176	
6.23657	0.0088501	0.000762939	
6.23657	0.00823975	0.000457764	
6.23627	0.00793457	0.000457764	
6.23627	0.00854492	0.000610352	
6.23627	0.00854492	0.000457764	
6.23688	0.00793457	0.000457764	
6.23627	0.00823975	0.000305176	
6.23657	0.0088501	0.00152588	
6.23657	0.00823975	0.000305176	
6.23657	0.00823975	0.000305176	
6.23627	0.00701904	0.00106812	
6.23627	0.00366211	0.000915527	
6.23627	0.00335693	0.000457764	
6.23627	0.00366211	0.000305176	
6.23627	0.00305176	-0.000610352	
6.23718	0.00366211	-0.000457764	
6.23657	0.00335693	0	
6.23596	0.00305176	0.000457764	
6.23566	0.00335693	0	
6.23322	0.00366211	0.000305176	
6.2326	0.00274658	0.000610352	
6.23199	0.00335693	0.000457764	
6.23199	0.00183105	0.000305176	
6.23108	-0.000610352	0.000152588	
6.23199	-0.0012207	0.000610352	
6.23199	-0.000305176	0.000305176	
6.23138	-0.00152588	-0.000152588	
6.23169	-0.000610352	-0.000152588	
6.23138	-0.0012207	-0.000152588	
6.23108	-0.00213623	0	
6.23138	-0.0012207	0.000457764	
6.23169	-0.00152588	0.000152588	
6.23169	-0.00183105	0.000305176	
6.23108	-0.000915527	0.000457764	
6.23138	-0.000610352	0.00137329	
6.23138	-0.00305176	0.00106812	
6.23108	-0.00549316	0.000305176	
6.23108	-0.00610352	0.000762939	
6.23077	-0.00610352	0.000610352	
6.22803	-0.00671387	0	
6.22711	-0.00640869	0.000457764	
6.22681	-0.00610352	0.000305176	
6.22589	-0.00640869	0.000152588	
6.22681	-0.00610352	0.000762939	
6.2265	-0.00640869	0.000457764	
6.22681	-0.00610352	0.000762939	
6.22681	-0.00610352	0.000457764	
6.2265	-0.00579834	0.00152588	
6.22681	-0.00579834	0.000457764	
6.22681	-0.00640869	0.000457764	
6.22681	-0.00762939	0.000457764	
6.22681	-0.0100708	0.000610352	
6.22589	-0.0109863	0.000152588	
6.22681	-0.0109863	0.000305176	
6.22589	-0.0115967	-0.000457764	
6.2262	-0.0112915	-0.000152588	
6.22589	-0.0112915	0	
6.2262	-0.0115967	0	
6.22253	-0.0119019	0.000305176	
6.22162	-0.0112915	0.000152588	
6.22162	-0.0109863	0.000457764	
6.22101	-0.0109863	0.000610352	
6.22192	-0.0109863	0.000305176	
6.22131	-0.0112915	0.000152588	
6.22192	-0.0112915	0.000457764	
6.22162	-0.0106812	0.000457764	
6.22131	-0.0119019	-0.000152588	
6.22131	-0.0112915	-0.000152588	
6.22162	-0.0112915	0.000152588	
6.22162	-0.012207	0	
6.22162	-0.015564	0	
6.22101	-0.0161743	0.000457764	
6.22192	-0.0167847	0.000762939	
6.22162	-0.0161743	0.000610352	
6.22192	-0.0158691	0.00137329	
6.22192	-0.015564	0.00106812	
6.2204	-0.0164795	0.000152588	
6.21826	-0.0161743	0.0012207	
6.21674	-0.0161743	0.000305176	
6.21643	-0.0158691	0.000305176	
6.21674	-0.015564	0.000457764	
6.21704	-0.0161743	0.000457764	
6.21613	-0.0158691	0.000152588	
6.21674	-0.015564	0.000457764	
6.21643	-0.015564	0.000152588	
6.21704	-0.0161743	0.000610352	
6.21613	-0.0164795	0.000152588	
6.21704	-0.0161743	0.0012207	
6.21735	-0.0164795	0.000762939	
6.21643	-0.0164795	0.000457764	
6.21674	-0.0152588	0.000762939	
6.21704	-0.0161743	0.000762939	
6.21704	-0.0161743	0.000457764	
6.21765	-0.0158691	0.000152588	
6.21613	-0.0161743	-0.000305176	
6.21338	-0.0158691	-0.000305176	
6.21185	-0.0177002	0	
6.21155	-0.0201416	0.000457764	
6.21185	-0.0216675	-0.000152588	
6.21155	-0.0216675	0.000152588	
6.21124	-0.0204468	0.000305176	
6.21155	-0.0213623	0.000457764	
6.21155	-0.0213623	0.000457764	
6.21155	-0.0210571	0.000305176	
6.21185	-0.0210571	0.000305176	
6.21185	-0.0210571	0.000152588	
6.21185	-0.0210571	0.000152588	
6.21185	-0.0210571	-0.000152588	
6.21155	-0.0210571	0	
6.21185	-0.0216675	0	
6.21185	-0.0210571	0.000152588	
6.21094	-0.0210571	0.000305176	
6.20789	-0.0213623	0.000457764	
6.20697	-0.0213623	0.000457764	
6.20667	-0.020752	0.00152588	
6.20636	-0.020752	0.000762939	
6.20697	-0.020752	0.000610352	
6.20697	-0.0210571	0.00106812	
6.20667	-0.020752	0.000762939	
6.20667	-0.0210571	0.000610352	
6.20697	-0.0210571	0.000457764	
6.20758	-0.0210571	0.000457764	
6.20667	-0.020752	0.000457764	
6.20667	-0.0210571	0.000457764	
6.20697	-0.0213623	0.000305176	
6.20667	-0.020752	0.000610352	
6.20697	-0.0213623	0	
6.20667	-0.020752	0.00137329	
6.20544	-0.0216675	0.000762939	
6.203	-0.0213623	0.000610352	
6.20209	-0.0213623	0.000762939	
6.20209	-0.0210571	0.000915527	
6.20178	-0.020752	0.000762939	
6.20148	-0.0213623	0.000152588	
6.20178	-0.0213623	-0.000457764	
6.20148	-0.0210571	-0.000152588	
6.20239	-0.0210571	0.000152588	
6.20239	-0.0204468	0.000152588	
6.20148	-0.0213623	0.000610352	
6.20209	-0.0210571	0.000152588	
6.20178	-0.0204468	0.000610352	
6.20148	-0.0204468	0.000457764	
6.20239	-0.020752	0.000762939	
6.20087	-0.0213623	0.000305176	
6.20117	-0.0213623	0.000305176	
6.19812	-0.0210571	0.000305176	
6.1969	-0.0210571	0	
6.1972	-0.0210571	-0.000152588	
6.1969	-0.0213623	-0.000152588	
6.1972	-0.0210571	-0.000152588	
6.1969	-0.0204468	-0.000152588	
6.19659	-0.020752	0.000457764	
6.1969	-0.0213623	0.000152588	
6.1972	-0.0210571	0.000610352	
6.19659	-0.020752	0.00106812	
6.19659	-0.020752	0.000915527	
6.1972	-0.0213623	0.000457764	
6.19659	-0.0204468	0.00106812	
6.19659	-0.0210571	0.000915527	
6.1969	-0.0213623	0.000305176	
6.19629	-0.0216675	0.000610352	
6.19324	-0.0213623	0.000457764	
6.19171	-0.0210571	0.000152588	
6.19202	-0.0210571	0.000762939	
6.19171	-0.0210571	0.000457764	
6.19202	-0.0213623	0.000305176	
6.19202	-0.0210571	0.000305176	
6.19263	-0.020752	0.00152588	
6.19202	-0.0213623	0.000610352	
6.19141	-0.0213623	0.000305176	
6.19141	-0.0210571	0.000457764	
6.19141	-0.0210571	0.000610352	
6.19232	-0.0210571	0.000915527	
6.19202	-0.0216675	0	
6.19202	-0.0201416	-0.000305176	
6.19171	-0.0213623	-0.000152588	
6.19141	-0.0210571	0	
6.18774	-0.0213623	0.000762939	
6.18713	-0.0213623	0.000457764	
6.18713	-0.0216675	0	
6.18652	-0.0210571	0.000305176	
6.18652	-0.0204468	0.000457764	
6.18683	-0.020752	0.000457764	
6.18744	-0.0210571	0.000305176	
6.18744	-0.0219727	0.000305176	
6.18683	-0.0213623	0.000152588	
6.18713	-0.0210571	-0.000305176	
6.18713	-0.020752	-0.000305176	
6.18683	-0.0216675	0.000457764	
6.18713	-0.0210571	0.000152588	
6.18744	-0.0210571	0.000457764	
6.18591	-0.0210571	0.000305176	
6.18347	-0.0210571	0.000305176	
6.18225	-0.020752	0.000762939	
6.18134	-0.0213623	0.0012207	
6.18195	-0.0210571	0.00106812	
6.18195	-0.0213623	0.000305176	
6.18164	-0.0210571	0.00106812	
6.18164	-0.0213623	0.000457764	
6.18256	-0.0216675	0.000457764	
6.18225	-0.020752	0.000305176	
6.18164	-0.0213623	0.000152588	
6.18225	-0.0219727	0.000152588	
6.18195	-0.020752	0.000457764	
6.18195	-0.020752	0.000152588	
6.18164	-0.0201416	0.000152588	
6.18103	-0.0213623	0.000152588	
6.17828	-0.0213623	0.0012207	
6.17706	-0.0210571	0.0012207	
6.17676	-0.020752	0.000457764	
6.17676	-0.0213623	0.000915527	
6.17706	-0.020752	0.000762939	
6.17676	-0.0213623	0.000457764	
6.17737	-0.0210571	0.000457764	
6.17706	-0.0213623	-0.000457764	
6.17767	-0.0216675	-0.000305176	
6.17737	-0.0201416	0.000152588	
6.17615	-0.0167847	0.000152588	
6.17706	-0.0164795	0.000305176	
6.17706	-0.0161743	0	
6.17767	-0.015564	0.000610352	
6.17706	-0.0158691	0.000610352	
6.17401	-0.0158691	0.000305176	
6.17279	-0.0158691	0.000305176	
6.17279	-0.0161743	0.000152588	
6.17188	-0.0158691	0.000305176	
6.17249	-0.0164795	-0.000457764	
6.17218	-0.0152588	0	
6.17249	-0.0158691	0.000305176	
6.17218	-0.0161743	0	
6.17188	-0.0164795	-0.000152588	
6.17188	-0.0158691	-0.000152588	
6.17157	-0.0161743	-0.000152588	
6.17249	-0.0158691	0.000762939	
6.17188	-0.0167847	0.0012207	
6.17218	-0.0161743	0.0012207	
6.17126	-0.0161743	0.000457764	
6.16852	-0.0164795	0.00106812	
6.1676	-0.0161743	0.000457764	
6.16699	-0.0161743	0	
6.16699	-0.0158691	0.000152588	
6.1676	-0.0161743	0.000305176	
6.16638	-0.0164795	0.000610352	
6.16699	-0.0158691	0.000305176	
6.1673	-0.0167847	0.000305176	
6.1673	-0.0161743	0.000457764	
6.1676	-0.0164795	0.000152588	
6.1673	-0.0152588	0.00106812	
6.16699	-0.0158691	0.000762939	
6.1673	-0.0161743	0.000457764	
6.16669	-0.0161743	0.000762939	
6.16364	-0.0164795	0.000457764	
6.16241	-0.0161743	0.000762939	
6.16272	-0.0161743	0.000610352	
6.16211	-0.0161743	-0.000152588	
6.16272	-0.0158691	0	
6.16241	-0.0158691	0	
6.16241	-0.0161743	0.000305176	
6.16241	-0.0158691	0.000610352	
6.16241	-0.0161743	0	
6.16241	-0.0164795	0.000915527	
6.16241	-0.0161743	0.000610352	
6.16241	-0.015564	0.000457764	
6.16211	-0.0158691	0.000457764	
6.16211	-0.015564	0.000152588	
6.15784	-0.0161743	0.000457764	
6.15753	-0.0161743	0.000152588	
6.15662	-0.0164795	-0.000152588	
6.15753	-0.0158691	0.000457764	
6.15784	-0.0158691	-0.000152588	
6.15753	-0.0161743	0.000152588	
6.15784	-0.0161743	0.000152588	
6.15753	-0.0161743	0.000305176	
6.15784	-0.0164795	0.000457764	
6.15753	-0.0161743	0.00137329	
6.15753	-0.0161743	0.00106812	
6.15784	-0.0161743	-0.000152588	
6.15692	-0.0161743	0.000610352	
6.15479	-0.0161743	0.000457764	
6.15265	-0.0161743	0.000762939	
6.15265	-0.0161743	0.000610352	
6.15326	-0.0161743	0.000305176	
6.15265	-0.0161743	0	
6.15356	-0.0161743	0.000610352	
6.15265	-0.0158691	0.000457764	
6.15234	-0.0167847	0.000152588	
6.15295	-0.0164795	0.000610352	
6.15234	-0.015564	0.00152588	
6.15265	-0.0164795	0.000610352	
6.15234	-0.0164795	0.000457764	
6.15204	-0.0161743	0.000762939	
6.15173	-0.0158691	0.000457764	
6.1496	-0.0161743	0.000305176	
6.14868	-0.0158691	0	
6.14777	-0.0164795	-0.000610352	
6.14746	-0.0164795	-0.000152588	
6.14777	-0.0158691	0.000305176	
6.14807	-0.0161743	0.000305176	
6.14716	-0.0158691	0.000305176	
6.14746	-0.015564	-0.000305176	
6.14838	-0.0161743	0.000610352	
6.14807	-0.0158691	0.000457764	
6.14746	-0.0158691	0.000457764	
6.14807	-0.0164795	0.000610352	
6.14746	-0.0158691	0.000457764	
6.14441	-0.0167847	0.000457764	
6.14319	-0.0158691	-0.000152588	
6.14288	-0.0164795	-0.000152588	
6.14288	-0.0164795	0.000305176	
6.14258	-0.0164795	0	
6.14288	-0.0167847	0.000152588	
6.14288	-0.0161743	0.000610352	
6.14288	-0.0161743	0	
6.14319	-0.0149536	0.000610352	
6.14258	-0.0158691	0.0012207	
6.14288	-0.0164795	0.00106812	
6.14288	-0.0167847	0.000305176	
6.14166	-0.0161743	0.00106812	
6.13892	-0.0161743	0.000305176	
6.138	-0.0161743	0.000305176	
6.1377	-0.0158691	0.000457764	
6.138	-0.0164795	0.000305176	
6.13861	-0.0161743	0.000457764	
6.1377	-0.015564	0	
6.13831	-0.0161743	0.000152588	
6.138	-0.0161743	0.000457764	
6.13831	-0.015564	0.000610352	
6.13831	-0.0158691	0.00152588	
6.13739	-0.0158691	0.00106812	
6.138	-0.0158691	0.000610352	
6.13708	-0.0158691	0.000762939	
6.13403	-0.0161743	0.000305176	
6.13251	-0.0158691	0.000305176	
6.13281	-0.0164795	0.000305176	
6.13312	-0.015564	-0.000610352	
6.13281	-0.0158691	-0.000305176	
6.13281	-0.0161743	0.000457764	
6.13251	-0.0158691	0.000457764	
6.13281	-0.0158691	0.000457764	
6.13281	-0.0167847	0.000152588	
6.13281	-0.0161743	0.000610352	
6.13251	-0.0161743	0.000762939	
6.13342	-0.0161743	0.000457764	
6.13251	-0.0164795	0	
6.12976	-0.0158691	0.000457764	
6.12793	-0.0161743	0.000152588	
6.12793	-0.0158691	0	
6.12823	-0.0161743	0	
6.12793	-0.0161743	0.000305176	
6.12732	-0.0158691	0.000305176	
6.12854	-0.0158691	0.000305176	
6.12854	-0.0164795	0.000305176	
6.12762	-0.0161743	0.000305176	
6.12854	-0.0158691	0.000915527	
6.12732	-0.0164795	0.00106812	
6.12701	-0.0164795	0.00106812	
6.12427	-0.0161743	0.000152588	
6.12305	-0.0158691	0.00106812	
6.12366	-0.0164795	0.000457764	
6.12396	-0.0164795	0.000305176	
6.12305	-0.0161743	0.000152588	
6.12305	-0.0161743	0.000305176	
6.12305	-0.0158691	0.000305176	
6.12335	-0.0158691	0.000305176	
6.12335	-0.0164795	0.000152588	
6.12335	-0.0158691	0.000152588	
6.12274	-0.0164795	0.000305176	
6.12335	-0.0158691	0.0012207	
6.12183	-0.0158691	0.000610352	
6.12	-0.0164795	0.000457764	
6.11755	-0.0158691	0.000762939	
6.11786	-0.0158691	0.000305176	
6.11816	-0.0158691	0.000305176	
6.11816	-0.0164795	0	
6.11847	-0.0170898	-0.000457764	
6.11816	-0.0158691	-0.000152588	
6.11847	-0.0164795	0	
6.11786	-0.0164795	0.000152588	
6.11725	-0.0161743	0.000457764	
6.11877	-0.0161743	0	
6.11725	-0.0161743	0.000762939	
6.11481	-0.0164795	0.000762939	
6.11389	-0.0161743	0.000457764	
6.11389	-0.0161743	0.000152588	
6.1145	-0.0158691	0.000305176	
6.11328	-0.0164795	0	
6.11359	-0.0161743	0.000305176	
6.11298	-0.0161743	-0.000152588	
6.11359	-0.0167847	0.000305176	
6.11328	-0.0158691	0.000305176	
6.11389	-0.0161743	0	
6.11359	-0.0161743	0.000305176	
6.11389	-0.0167847	0.000152588	
6.11328	-0.0167847	0.000610352	
6.10901	-0.015564	0.0012207	
6.1087	-0.0158691	0.000915527	
6.1084	-0.0158691	0	
6.1084	-0.0164795	0.000915527	
6.1087	-0.0161743	0.000610352	
6.1084	-0.0164795	0.000457764	
6.10779	-0.0161743	0.000457764	
6.10718	-0.0161743	0.000457764	
6.1084	-0.0158691	-0.000152588	
6.1087	-0.0161743	0.000457764	
6.10809	-0.0158691	0.000305176	
6.10687	-0.0146484	0.000305176	
6.10443	-0.0119019	0.000305176	
6.10382	-0.0112915	0.00137329	
6.10352	-0.0109863	0.000610352	
6.10352	-0.0115967	0.000610352	
6.10291	-0.0109863	0.00106812	
6.10382	-0.0109863	0.000457764	
6.10352	-0.0112915	0.000457764	
6.10352	-0.0112915	0.000305176	
6.1026	-0.010376	-0.000915527	
6.10382	-0.0112915	-0.000152588	
6.10321	-0.0112915	0.000152588	
6.1026	-0.0109863	0.000305176	
6.09985	-0.0109863	0.000152588	
6.09863	-0.0112915	0	
6.09772	-0.0112915	0.000762939	
6.09802	-0.0112915	0.000610352	
6.09894	-0.0109863	0.000457764	
6.09863	-0.0109863	0.000457764	
6.09894	-0.0109863	0.000305176	
6.09863	-0.0119019	0.000152588	
6.09833	-0.0115967	-0.000305176	
6.09802	-0.0106812	0	
6.09802	-0.0109863	0	
6.09894	-0.0115967	0	
6.09863	-0.0109863	0.000305176	
6.09497	-0.0109863	0.000305176	
6.09375	-0.0109863	0.000305176	
6.09283	-0.0115967	0.000915527	
6.09375	-0.010376	0.00152588	
6.09375	-0.0112915	0.00106812	
6.09375	-0.0109863	0.000305176	
6.09283	-0.0112915	0.000915527	
6.09344	-0.0109863	0.000610352	
6.09406	-0.0112915	0.000457764	
6.09375	-0.0112915	0.000305176	
6.09375	-0.0115967	0.000457764	
6.09283	-0.0106812	0.000152588	
6.08948	-0.0109863	0.000305176	
6.08856	-0.0115967	0.000152588	
6.08795	-0.0119019	0.000610352	
6.08826	-0.0112915	0.000457764	
6.08826	-0.0112915	0.0012207	
6.08795	-0.010376	0.000457764	
6.08795	-0.0109863	0.000305176	
6.08887	-0.0115967	0.000762939	
6.08826	-0.0112915	0.000457764	
6.08826	-0.0112915	0.000457764	
6.08826	-0.0112915	0.000152588	
6.08795	-0.0119019	-0.000457764	
6.08551	-0.0112915	-0.000152588	
6.08429	-0.0106812	-0.000152588	
6.08307	-0.0115967	0.000457764	
6.08276	-0.0106812	0.000152588	
6.08398	-0.0115967	0.000152588	
6.08246	-0.0112915	0.000457764	
6.08337	-0.0112915	0.000457764	
6.08398	-0.0106812	0.000457764	
6.08307	-0.0109863	0.000457764	
6.08337	-0.0112915	0.000457764	
6.08307	-0.0109863	0.000152588	
6.08246	-0.0115967	0	
6.08002	-0.0119019	-0.000305176	
6.07849	-0.0106812	0.000305176	
6.07819	-0.0109863	0.000152588	
6.0788	-0.0109863	0.000305176	
6.0788	-0.0112915	0.000305176	
6.07788	-0.0112915	0.000305176	
6.0791	-0.010376	0.0012207	
6.07849	-0.0106812	0.0012207	
6.0788	-0.0109863	0.000915527	
6.07849	-0.00946045	0.000610352	
6.07849	-0.00732422	0.000762939	
6.07819	-0.00610352	0.000457764	
6.07513	-0.00610352	0.000457764	
6.07452	-0.00610352	0.000457764	
6.07422	-0.00549316	0.000457764	
6.07452	-0.00579834	0.000457764	
6.07391	-0.00671387	0.000152588	
6.07361	-0.00732422	0.000305176	
6.07422	-0.00610352	0.000457764	
6.0733	-0.00549316	0.000457764	
6.07361	-0.00579834	0.00137329	
6.07361	-0.00640869	0.000762939	
6.07361	-0.00640869	0.000152588	
6.073	-0.00610352	0.000610352	
6.07025	-0.00610352	0.000762939	
6.06964	-0.00610352	0.000457764	
6.06873	-0.00640869	0.000152588	
6.06903	-0.00549316	-0.000457764	
6.06812	-0.00579834	0	
6.06842	-0.00640869	-0.000152588	
6.06873	-0.00640869	0.000457764	
6.06934	-0.00610352	0.000152588	
6.06873	-0.00610352	-0.000305176	
6.06842	-0.00610352	0.000915527	
6.06842	-0.00640869	0.000152588	
6.06781	-0.00610352	0.000305176	
6.06476	-0.00610352	0.000457764	
6.06445	-0.00640869	0.000762939	
6.06384	-0.00610352	0.000152588	
6.06293	-0.00610352	0.000152588	
6.06354	-0.00640869	-0.000457764	
6.06384	-0.00640869	0.000305176	
6.06384	-0.00579834	0.000152588	
6.06384	-0.00671387	0.000152588	
6.06384	-0.00579834	0.000305176	
6.06384	-0.00671387	0.000152588	
6.06293	-0.00610352	0.000762939	
6.06049	-0.00671387	0.000762939	
6.05865	-0.00640869	0.000762939	
6.05865	-0.00610352	0.000762939	
6.05865	-0.00640869	0.000915527	
6.05835	-0.00640869	0.000762939	
6.05865	-0.00610352	0.000152588	
6.05835	-0.00671387	0	
6.05988	-0.00579834	0.000305176	
6.05865	-0.00213623	0.000305176	
6.05835	-0.00183105	0.000457764	
6.05865	-0.00152588	0.000152588	
6.05896	-0.0012207	0.000457764	
6.0556	-0.00152588	0.000152588	
6.05377	-0.0012207	0.00167847	
6.05377	-0.00152588	0.000762939	
6.05347	-0.00152588	0.000610352	
6.05408	-0.000915527	0.000762939	
6.05347	-0.0012207	0.000152588	
6.05469	-0.0012207	0.000305176	
6.05347	-0.000915527	0.000152588	
6.05377	-0.00213623	-0.000915527	
6.05408	-0.00152588	0	
6.05347	-0.00183105	0.000305176	
6.05286	-0.0012207	0	
6.05042	-0.00152588	0.000305176	
6.0498	-0.00152588	0	
6.04889	-0.0012207	0.000457764	
6.04889	-0.00152588	0.000610352	
6.04858	-0.000915527	0.000305176	
6.04919	-0.0012207	0	
6.04858	-0.00213623	0.000152588	
6.04858	-0.00183105	0.000152588	
6.04858	-0.000610352	0	
6.04828	-0.000915527	-0.000305176	
6.04828	-0.00183105	0.000152588	
6.04614	-0.00152588	0	
6.04431	-0.00152588	0.000152588	
6.04401	-0.0012207	0.000457764	
6.0434	-0.00213623	0.000305176	
6.0434	-0.000915527	0.000915527	
6.0437	-0.0012207	0.0012207	
6.0434	-0.0012207	0.00106812	
6.0434	-0.0012207	0.000457764	
6.04401	-0.00152588	0.00106812	
6.0437	-0.0012207	0.000457764	
6.0437	-0.0012207	0.000762939	
6.04034	-0.00183105	0.000457764	
6.03912	-0.000610352	0.000152588	
6.03882	0.00244141	0.000305176	
6.03851	0.00335693	0.000457764	
6.03882	0.00335693	0	
6.03943	0.00366211	0.000610352	
6.03943	0.00335693	0.000457764	
6.03882	0.00335693	0.000915527	
6.03912	0.00305176	0.000457764	
6.03882	0.00335693	0.000152588	
6.03882	0.00274658	0.000610352	
6.03851	0.00366211	0.000305176	
6.03577	0.00366211	0.000610352	
6.03394	0.00335693	0	
6.03394	0.00335693	-0.000305176	
6.03394	0.00366211	-0.000152588	
6.03363	0.00305176	0.000305176	
6.03424	0.00305176	0.000305176	
6.03363	0.00366211	0.000305176	
6.03394	0.00335693	0.000305176	
6.03424	0.00366211	0.000610352	
6.03424	0.00305176	0.000457764	
6.03394	0.00305176	0.000457764	
6.03058	0.00305176	0.000457764	
6.02875	0.00305176	0.000457764	
6.02905	0.00305176	0.000152588	
6.02875	0.00274658	-0.000610352	
6.02844	0.00335693	0	
6.02905	0.00244141	0.000152588	
6.02875	0.00305176	0.000305176	
6.02936	0.00305176	0.000305176	
6.02936	0.00335693	0	
6.02905	0.00335693	0.000457764	
6.02783	0.00305176	0.000610352	
6.02631	0.00335693	0.0012207	
6.02478	0.00305176	0.00106812	
6.02386	0.00366211	0.000305176	
6.02478	0.00427246	0.0012207	
6.02356	0.00335693	0.000762939	
6.02417	0.00213623	0.000457764	
6.02417	0.00274658	0.000305176	
6.02386	0.00457764	0.000152588	
6.02386	0.00762939	0.000152588	
6.02478	0.0088501	0	
6.02356	0.00823975	0.000152588	
6.02081	0.00762939	0.000610352	
6.01959	0.00854492	0.000610352	
6.01929	0.00823975	0.00152588	
6.01929	0.00854492	0.000457764	
6.01929	0.00793457	0.000457764	
6.01959	0.00793457	0.000762939	
6.01898	0.00823975	0.000305176	
6.01929	0.00854492	0.000610352	
6.01837	0.00854492	-0.000152588	
6.01776	0.00762939	-0.000457764	
6.01624	0.00854492	-0.000305176	
6.0144	0.00854492	0.000305176	
6.01471	0.00762939	0.000457764	
6.01379	0.0088501	0.000457764	
6.01501	0.00854492	-0.000152588	
6.0144	0.00854492	0.000610352	
6.01379	0.00854492	0.000610352	
6.01471	0.00854492	0.000305176	
6.0141	0.00793457	0.000305176	
6.0144	0.0088501	0.000457764	
6.01349	0.00823975	0.000457764	
6.01074	0.0088501	-0.000152588	
6.00952	0.00762939	-0.000152588	
6.00861	0.00762939	0.000152588	
6.00952	0.00854492	0	
6.00922	0.00823975	0.000152588	
6.00952	0.00762939	0.000152588	
6.00922	0.00823975	0.000152588	
6.00983	0.00854492	0.00106812	
6.00891	0.00854492	0.00137329	
6.00922	0.00793457	0.000762939	
6.00861	0.0088501	0.000305176	
6.00586	0.00854492	0.000915527	
6.00433	0.00854492	0.000762939	
6.00464	0.00854492	0.000457764	
6.00464	0.00823975	0.000762939	
6.00494	0.00823975	0.000457764	
6.00464	0.00762939	0.000305176	
6.00433	0.00793457	0.000152588	
6.00433	0.00823975	0.000457764	
6.00372	0.00823975	0.000305176	
6.00403	0.00854492	0.000152588	
6.00098	0.00793457	0.00106812	
5.99976	0.00823975	0.000610352	
5.99976	0.00854492	0.000457764	
5.99945	0.0088501	0.000915527	
5.99945	0.00854492	0.000915527	
5.99945	0.00823975	0	
5.99976	0.00854492	0.000152588	
6.00006	0.00823975	-0.000762939	
5.99945	0.00854492	0.000457764	
5.99884	0.00793457	0.000152588	
5.9964	0.00823975	0.000152588	
5.99487	0.00823975	0.000610352	
5.99457	0.00823975	0	
5.99457	0.00946045	0.000457764	
5.99518	0.012207	0.000305176	
5.99518	0.0134277	0.000457764	
5.99457	0.0131226	0.000305176	
5.99457	0.0131226	0.000305176	
5.99518	0.0137329	0.000457764	
5.99365	0.0134277	0	
5.99091	0.0134277	-0.000152588	
5.98969	0.0131226	0.000152588	
5.9903	0.0131226	0.000305176	
5.98938	0.0134277	0.000305176	
5.98938	0.0128174	0.000610352	
5.98999	0.0131226	0.000305176	
5.98969	0.0128174	0.000457764	
5.98907	0.0131226	0.00106812	
5.98969	0.0131226	0.000762939	
5.98907	0.0128174	0.000152588	
5.98602	0.0125122	0.000762939	
5.98419	0.0131226	0.000305176	
5.9845	0.0125122	0.000457764	
5.9848	0.0131226	0.000457764	
5.98419	0.0131226	0.000610352	
5.9845	0.0134277	0.000457764	
5.9845	0.0131226	0.000457764	
5.9848	0.0131226	0.000457764	
5.9848	0.0131226	0.000305176	
5.98419	0.0134277	0.000152588	
5.98053	0.0131226	0.00137329	
5.98022	0.0137329	0.000915527	
5.97931	0.0131226	0.000762939	
5.97961	0.0131226	0.000762939	
5.97961	0.0131226	0.000610352	
5.97931	0.0134277	0.000305176	
5.98022	0.0131226	0.000152588	
5.97992	0.0134277	-0.000305176	
5.97992	0.0140381	-0.000152588	
5.9787	0.0134277	0	
5.97687	0.0131226	0.000305176	
5.97504	0.0134277	0.000305176	
5.97473	0.0125122	0.000152588	
5.97504	0.0134277	0.000457764	
5.97473	0.0128174	0.000762939	
5.97473	0.0134277	0.000457764	
5.97534	0.0134277	0	
5.97504	0.0134277	0.000457764	
5.97504	0.0137329	0.000610352	
5.97229	0.0134277	-0.000305176	
5.97076	0.0131226	0	
5.96954	0.0131226	0.000305176	
5.97015	0.0128174	0.000610352	
5.96954	0.0134277	0.000610352	
5.96985	0.0131226	0.000305176	
5.97015	0.0128174	0.000457764	
5.97046	0.0137329	0.0012207	
5.97015	0.0140381	0.0012207	
5.96863	0.0134277	0.000915527	
5.9668	0.0131226	0.000152588	
5.96497	0.0131226	0.000915527	
5.96527	0.0131226	0.000610352	
5.96466	0.0128174	0.000457764	
5.96497	0.0131226	0.000762939	
5.96466	0.0131226	0	
5.96527	0.0125122	0.000305176	
5.96466	0.0134277	0	
5.96497	0.0128174	0.000305176	
5.96252	0.0134277	0.000762939	
5.96039	0.0131226	0.000305176	
5.95978	0.0131226	0.00106812	
5.96069	0.0134277	0.000915527	
5.96039	0.0131226	0.000457764	
5.95978	0.0131226	0.000610352	
5.96039	0.0131226	0.000762939	
5.96008	0.0134277	0.000457764	
5.95947	0.0131226	0	
5.95703	0.0131226	-0.000305176	
5.9549	0.0131226	0	
5.9549	0.0134277	0	
5.95459	0.0131226	0.000305176	
5.9552	0.0137329	0.000305176	
5.95551	0.0131226	0.000152588	
5.9549	0.0131226	0.000915527	
5.95581	0.0137329	0.000610352	
5.95428	0.0128174	0.000457764	
5.95123	0.0131226	0.000305176	
5.95001	0.0128174	0.000457764	
5.95001	0.0128174	0.000305176	
5.94971	0.0134277	-0.000305176	
5.95062	0.0128174	-0.000152588	
5.95001	0.0131226	0.000152588	
5.94971	0.0125122	0.000305176	
5.95001	0.0128174	0	
5.9491	0.0128174	0.000305176	
5.94727	0.0131226	-0.000152588	
5.94513	0.0131226	0.000762939	
5.94513	0.0131226	0.00152588	
5.94452	0.0134277	0.000915527	
5.94543	0.0128174	0.000305176	
5.94543	0.0137329	0.0012207	
5.94543	0.0134277	0.000457764	
5.94513	0.0115967	0.000457764	
5.94452	0.0088501	0.000610352	
5.94147	0.00793457	0	
5.94055	0.00854492	0.000457764	
5.93994	0.00823975	0.000762939	
5.93994	0.00762939	0.000457764	
5.94025	0.00793457	0.000762939	
5.93994	0.00793457	0.000457764	
5.93964	0.00762939	0.000915527	
5.93994	0.00854492	0.00106812	
5.93964	0.00793457	0.000152588	
5.93628	0.00793457	0.00106812	
5.93506	0.00823975	0.000457764	
5.93475	0.00793457	0.000457764	
5.93536	0.00793457	-0.000152588	
5.93597	0.00793457	-0.000610352	
5.93475	0.00823975	0	
5.93506	0.00854492	0.000152588	
5.93536	0.00823975	0.000152588	
5.93445	0.00793457	0.000305176	
5.9314	0.00823975	-0.000152588	
5.93018	0.0088501	0.000610352	
5.93079	0.00793457	0.000610352	
5.93048	0.00823975	0.000762939	
5.93018	0.00823975	-0.000152588	
5.93018	0.00793457	0.000305176	
5.93048	0.00823975	0.000305176	
5.93018	0.00854492	0	
5.92957	0.00854492	-0.000152588	
5.92682	0.00823975	0.000305176	
5.92529	0.00823975	-0.000305176	
5.9256	0.00823975	0.000152588	
5.92621	0.00854492	0.000305176	
5.92529	0.00823975	0.000457764	
5.92529	0.00854492	0.0012207	
5.92529	0.00823975	0.0012207	
5.92529	0.00854492	0.000762939	
5.92163	0.00732422	0.000610352	
5.92041	0.00854492	0.00106812	
5.92072	0.00762939	0.000915527	
5.92041	0.00793457	0.000610352	
5.92041	0.00854492	0.000305176	
5.92041	0.00793457	0.000152588	
5.92102	0.00823975	0	
5.92041	0.00793457	0.000457764	
5.92072	0.00762939	0.000305176	
5.91705	0.00762939	0.000305176	
5.91583	0.00793457	0.000457764	
5.91583	0.00823975	0.0012207	
5.91583	0.00854492	0.000762939	
5.91583	0.0088501	0.000305176	
5.91614	0.00793457	0.000762939	
5.91614	0.00823975	0.000457764	
5.91583	0.00823975	0.000610352	
5.91492	0.00823975	0	
5.91187	0.00823975	-0.000610352	
5.91125	0.00793457	0	
5.91064	0.00823975	0	
5.91095	0.00823975	0.000305176	
5.91003	0.00823975	0.000457764	
5.91034	0.00854492	0	
5.91064	0.00854492	0.000457764	
5.91034	0.00823975	0.000457764	
5.91034	0.00823975	0.000457764	
5.90698	0.00915527	0.000152588	
5.90576	0.00762939	0.000610352	
5.90607	0.00854492	0.000152588	
5.90546	0.00854492	0	
5.90576	0.00823975	0	
5.90546	0.00823975	-0.000152588	
5.90576	0.00854492	0	
5.90576	0.00854492	0.000152588	
5.90485	0.00823975	0.000152588	
5.9024	0.0088501	0.000305176	
5.90088	0.00854492	0.000610352	
5.90118	0.00823975	0.00137329	
5.90118	0.00793457	0.000762939	
5.90088	0.00854492	0.000305176	
5.90118	0.00854492	0.0012207	
5.90057	0.00793457	0.000915527	
5.89996	0.0088501	0.000305176	
5.89661	0.00823975	0.000305176	
5.896	0.00854492	0	
5.896	0.00793457	0.000762939	
5.89569	0.00854492	0.000305176	
5.896	0.00854492	0.000457764	
5.896	0.00854492	0.000457764	
5.896	0.00823975	0.000305176	
5.89508	0.00823975	0.0012207	
5.89478	0.00732422	0.000457764	
5.89233	0.00366211	0.000610352	
5.89081	0.00335693	0.000610352	
5.89081	0.00335693	0.000457764	
5.89142	0.00335693	0.000457764	
5.8905	0.00305176	-0.000152588	
5.89081	0.00244141	-0.000762939	
5.89142	0.00274658	-0.000152588	
5.89081	0.00366211	0.000152588	
5.8905	0.00274658	0.000305176	
5.88684	0.00305176	0	
5.88593	0.00305176	0.000152588	
5.88593	0.00335693	0.000610352	
5.88562	0.00366211	0.000610352	
5.88593	0.00335693	0.000305176	
5.88593	0.00396729	0.000305176	
5.88593	0.00366211	0.000610352	
5.88501	0.00335693	0.000610352	
5.88226	0.00335693	0.000152588	
5.88074	0.00366211	0	
5.88074	0.00335693	0.000152588	
5.88074	0.00335693	0	
5.88043	0.00335693	0.000152588	
5.88104	0.00335693	0.000305176	
5.88135	0.00274658	0.000457764	
5.88104	0.00366211	0.000762939	
5.88104	0.00335693	0.00137329	
5.87769	0.00366211	0.000610352	
5.87646	0.00366211	0.000305176	
5.87646	0.00305176	0.000610352	
5.87555	0.00305176	0.000762939	
5.87646	0.00335693	0.000457764	
5.87524	0.00305176	0.000610352	
5.87219	0.00305176	0.000152588	
5.87158	0.00335693	0.000457764	
5.87097	0.00396729	0.000152588	
5.87036	0.00396729	0.000305176	
5.86761	0.00274658	0.000762939	
5.86609	0.00335693	0.000762939	
5.86578	0.00335693	0.000610352	
5.86609	0.00305176	0.000915527	
5.86609	0.00335693	0.000305176	
5.86609	0.00305176	0.000915527	
5.8667	0.00366211	0.000152588	
5.86609	0.00305176	0.000305176	
5.86639	0.00305176	-0.000152588	
5.86609	0.00274658	-0.000457764	
5.86639	0.00366211	0.000152588	
5.86578	0.00274658	0.000457764	
5.86639	0.00305176	0	
5.86609	0.00305176	0.000152588	
5.86273	0.00274658	0.000305176	
5.86182	0.00305176	0.000610352	
5.86182	0.00366211	0.000762939	
5.86121	0.00335693	0.000305176	
5.86121	0.00366211	0.000457764	
5.86151	0.00335693	0.000610352	
5.8609	0.00335693	-0.000152588	
5.86029	0.00305176	0.000457764	
5.85754	0.00366211	-0.000305176	
5.85663	0.00274658	0.000152588	
5.85663	0.00335693	0.000152588	
5.85663	0.00366211	0.000457764	
5.85632	0.00396729	0.000305176	
5.85602	0.00335693	0.000152588	
5.85663	0.00366211	0.000915527	
5.85663	0.00335693	0.00137329	
5.85602	0.00305176	0.000152588	
5.85297	0.00305176	0.000305176	
5.85175	0.00366211	0.000762939	
5.85114	0.00305176	0.000762939	
5.85144	0.00335693	0.000610352	
5.85205	0.00366211	0	
5.85175	0.00335693	0.000610352	
5.85114	0.00305176	0.000457764	
5.84869	0.00366211	0.000305176	
5.84717	0.00274658	0	
5.84595	0.00335693	0.000305176	
5.84595	0.00335693	0.000762939	
5.84625	0.00305176	0.000915527	
5.84717	0.00335693	0.000610352	
5.84686	0.00274658	0.000610352	
5.84595	0.00366211	0.000915527	
5.8432	0.00305176	0.000762939	
5.84198	0.00335693	0.000457764	
5.84198	0.00305176	-0.000152588	
5.84198	0.00274658	-0.000610352	
5.84106	0.00335693	0	
5.84167	0.00396729	0.000457764	
5.84229	0.00274658	0	
5.84137	0.00366211	0	
5.83832	0.00335693	0	
5.8371	0.00305176	0.000762939	
5.8371	0.00335693	0.000762939	
5.8374	0.00305176	0.000305176	
5.83771	0.00305176	0.000610352	
5.83679	0.00366211	0.000152588	
5.83649	0.00366211	0.000305176	
5.83618	0.00274658	0.000152588	
5.83313	0.00274658	-0.000457764	
5.83191	0.00335693	0	
5.83191	0.00305176	0.000152588	
5.83191	0.00305176	0.000457764	
5.83191	0.00305176	0.000305176	
5.83191	0.00335693	0	
5.83191	0.00396729	0.00106812	
5.82825	0.00305176	0.00137329	
5.82672	0.00305176	0.000762939	
5.82703	0.00305176	0.00106812	
5.82642	0.00366211	0.000610352	
5.82703	0.00335693	0.000610352	
5.82703	0.00335693	0.000762939	
5.82703	0.00335693	0.000457764	
5.82672	0.00335693	-0.000152588	
5.82306	0.00335693	0.000457764	
5.82153	0.00366211	0.000305176	
5.82153	0.00335693	0.000457764	
5.82275	0.00366211	0.000305176	
5.82184	0.00305176	0.00106812	
5.82184	0.00305176	0.000915527	
5.82184	0.00305176	0.000915527	
5.81848	0.00305176	0.000457764	
5.81726	0.00305176	0.000762939	
5.81726	0.00335693	0.000915527	
5.81665	0.00305176	0.000610352	
5.81726	0.00335693	0	
5.81726	0.00335693	-0.000610352	
5.81635	0.00366211	-0.000152588	
5.81299	0.00274658	0.000457764	
5.81207	0.00244141	0.000305176	
5.81268	0.00305176	0.000610352	
5.81238	0.00305176	-0.000152588	
5.81207	0.00335693	0.000762939	
5.81207	0.00335693	0.000915527	
5.81116	0.00305176	0.000152588	
5.80872	0.00335693	0.000610352	
5.8075	0.00335693	0	
5.80658	0.00305176	0.000152588	
5.8075	0.00335693	0.000305176	
5.80719	0.00305176	-0.000152588	
5.8075	0.00335693	0.000305176	
5.80627	0.00305176	0.000457764	
5.80414	0.00305176	0.000305176	
5.80261	0.00244141	0.000152588	
5.802	0.00335693	0.000457764	
5.802	0.00335693	0.0012207	
5.80292	0.00274658	0.00137329	
5.80231	0.00305176	0.000610352	
5.802	0.00335693	0.000610352	
5.79865	0.00274658	0.000762939	
5.79712	0.00274658	0.000762939	
5.79712	0.00305176	0.000305176	
5.79712	0.00335693	0.000305176	
5.79712	0.00335693	0.000457764	
5.79773	0.00305176	0.000305176	
5.7962	0.00335693	0.000305176	
5.79376	0.00335693	0.000457764	
5.79315	0.00244141	0.000305176	
5.79193	0.00305176	0.00106812	
5.79285	0.00335693	0.000610352	
5.79193	0.00335693	0.000610352	
5.79224	0.00213623	0.000152588	
5.79193	0.00366211	0.000915527	
5.78888	0.00305176	0.000457764	
5.78735	0.00305176	0.000762939	
5.78766	0.00274658	0	
5.78766	0.00335693	-0.000305176	
5.78705	0.00335693	-0.000152588	
5.78766	0.00335693	0.000762939	
5.78644	0.00335693	0.000152588	
5.78339	0.00305176	0.000152588	
5.78278	0.00305176	-0.000152588	
5.78278	0.00335693	0.000762939	
5.78217	0.00335693	0.000762939	
5.78217	0.00305176	0	
5.78247	0.00396729	0.000610352	
5.78156	0.00335693	0.000610352	
5.77942	0.00274658	0.000152588	
5.77789	0.00305176	0	
5.77759	0.00335693	-0.000152588	
5.77728	0.00366211	0.000305176	
5.77759	0.00305176	0	
5.77728	0.00305176	0.000610352	
5.77637	0.00366211	0.000610352	
5.77362	0.00244141	0.000457764	
5.77271	0.00366211	0.000610352	
5.77271	0.00335693	0.00183105	
5.77209	0.00335693	0.000152588	
5.77271	0.00305176	0.000305176	
5.77179	0.00335693	0.000915527	
5.76935	0.00305176	0.000305176	
5.76782	0.00305176	0.000457764	
5.76782	0.00305176	0.000152588	
5.76752	0.00335693	0.000152588	
5.76721	0.00274658	0.000305176	
5.76813	0.00366211	0.000457764	
5.76721	0.00335693	0	
5.76447	0.00305176	0.000305176	
5.76324	0.00305176	0.000762939	
5.76263	0.00335693	0.000915527	
5.76263	0.00305176	0.000915527	
5.76263	0.00274658	0.000610352	
5.76263	0.00274658	0.000915527	
5.76263	0.00335693	0.000457764	
5.75897	0.00305176	0.000457764	
5.75836	0.00305176	-0.000305176	
5.75745	0.00305176	-0.000762939	
5.75775	0.00274658	-0.000152588	
5.75745	0.00366211	0.000152588	
5.75745	0.00244141	-0.000152588	
5.75439	0.00305176	0.000152588	
5.75287	0.00305176	0.000152588	
5.75317	0.00305176	0.000915527	
5.75317	0.00335693	0.000305176	
5.75317	0.00305176	0	
5.75256	0.00305176	0.000305176	
5.75195	0.00366211	0.000305176	
5.74951	0.00335693	0	
5.74799	0.00427246	0.000305176	
5.74799	0.00701904	0.000305176	
5.74768	0.00823975	-0.000152588	
5.74799	0.00762939	-0.000152588	
5.74738	0.00823975	0.000152588	
5.74371	0.00793457	0.000305176	
5.7428	0.00854492	0.000305176	
5.74341	0.00823975	0.00106812	
5.74341	0.00854492	0.0012207	
5.74219	0.00823975	0.000457764	
5.74249	0.00854492	0.000915527	
5.74249	0.00823975	0.000762939	
5.73914	0.00854492	0.000762939	
5.73853	0.00762939	0.000610352	
5.73792	0.00854492	0.000305176	
5.73822	0.00762939	0.000305176	
5.73822	0.00854492	0.000762939	
5.7373	0.00854492	0.000152588	
5.73486	0.00854492	0.000152588	
5.73334	0.00823975	0.000152588	
5.73273	0.00854492	0.000915527	
5.73303	0.00854492	0.000457764	
5.73334	0.00762939	0.000915527	
5.73303	0.00793457	0.000305176	
5.73273	0.00762939	0.000915527	
5.72968	0.00793457	0.000305176	
5.72845	0.00762939	0.000305176	
5.72784	0.00732422	-0.000457764	
5.72754	0.00823975	-0.000457764	
5.72784	0.00854492	0	
5.72662	0.0088501	0.000762939	
5.72418	0.00823975	0	
5.72357	0.00823975	0	
5.72296	0.00854492	-0.000152588	
5.72296	0.00793457	0.000457764	
5.72296	0.00854492	0.000152588	
5.72327	0.00793457	0.000305176	
5.72296	0.00854492	0.000610352	
5.7196	0.0088501	0.000762939	
5.71838	0.00793457	0.000305176	
5.71777	0.00823975	0.000305176	
5.71808	0.00793457	0.000152588	
5.71777	0.00793457	0.000305176	
5.71777	0.00793457	0.000610352	
5.71472	0.00823975	0.000152588	
5.7135	0.00793457	0.000305176	
5.7135	0.00823975	0.000610352	
5.71381	0.00946045	0.0012207	
5.7132	0.012207	0.0012207	
5.7135	0.0131226	0.000152588	
5.71259	0.0134277	0.000610352	
5.70984	0.0134277	0.000915527	
5.70862	0.0131226	0.000762939	
5.70801	0.0131226	0.000457764	
5.70892	0.0134277	0.000457764	
5.70831	0.0131226	0.000305176	
5.7074	0.0131226	0.000610352	
5.70465	0.0137329	0	
5.70435	0.0134277	0.000457764	
5.70435	0.0131226	0.000305176	
5.70343	0.0131226	0.000915527	
5.70313	0.0131226	0.000610352	
5.70313	0.0131226	0.000457764	
5.70007	0.0131226	0.000457764	
5.69855	0.0128174	0.000915527	
5.69855	0.0134277	0.000762939	
5.69855	0.0131226	0.000915527	
5.69885	0.0134277	-0.000305176	
5.69855	0.0134277	-0.000762939	
5.69733	0.0134277	-0.000305176	
5.69519	0.0131226	0.000152588	
5.69427	0.0128174	-0.000152588	
5.69397	0.0131226	0	
5.69336	0.0128174	0	
5.69366	0.012207	0.000762939	
5.69336	0.0128174	0.000762939	
5.69092	0.0128174	0.000305176	
5.68909	0.0131226	0.000762939	
5.68848	0.0137329	0.000457764	
5.68848	0.0131226	0	
5.68909	0.0134277	0.000457764	
5.68787	0.0125122	0.000152588	
5.68542	0.0128174	0.000152588	
5.6839	0.0131226	0.000152588	
5.6839	0.0137329	0.000457764	
5.68359	0.0167847	0.000457764	
5.6839	0.0180054	0.000457764	
5.6839	0.0186157	0.000915527	
5.68268	0.0183105	0.00137329	
5.68054	0.0180054	0.000457764	
5.67932	0.0186157	0.000762939	
5.67841	0.0180054	0.00106812	
5.67963	0.0186157	0.00106812	
5.67841	0.0183105	0.000457764	
5.6781	0.0177002	0.000457764	
5.67566	0.0180054	0	
5.67444	0.0180054	0.000610352	
5.67383	0.0177002	0.000152588	
5.67383	0.0180054	0.000305176	
5.67413	0.0177002	0.000152588	
5.67413	0.0186157	0.0012207	
5.67047	0.0180054	0.000762939	
5.66986	0.0177002	0.000610352	
5.66956	0.0177002	0.000610352	
5.66925	0.0180054	0.000762939	
5.66925	0.017395	0.000762939	
5.66925	0.0183105	0.000457764	
5.66833	0.0180054	0	
5.66559	0.0177002	-0.000610352	
5.66467	0.0183105	-0.000152588	
5.66437	0.0183105	0.000305176	
5.66406	0.0180054	0.000457764	
5.66467	0.0177002	0.000152588	
5.66376	0.017395	0.000152588	
5.6601	0.0183105	0.000915527	
5.65979	0.0186157	0.000457764	
5.65857	0.0177002	0.000457764	
5.65948	0.0183105	0.000457764	
5.65948	0.0195313	0.000152588	
5.65857	0.0222778	0.000305176	
5.65582	0.0228882	-0.000152588	
5.6543	0.0228882	-0.000152588	
5.6546	0.0228882	0.000152588	
5.6546	0.0234985	0.000152588	
5.6543	0.0228882	0.000457764	
5.6543	0.0231934	0.000610352	
5.65369	0.0238037	0.000457764	
5.64972	0.022583	0.00106812	
5.64941	0.0231934	0.00137329	
5.64941	0.0231934	0.000457764	
5.64941	0.0234985	0.00106812	
5.64972	0.0231934	0.000762939	
5.6485	0.022583	0.000762939	
5.64606	0.022583	0.000152588	
5.64545	0.0228882	0.000305176	
5.64423	0.0231934	0.000305176	
5.64392	0.0238037	0.000762939	
5.64484	0.0231934	0.000305176	
5.64362	0.0234985	0.000152588	
5.64148	0.0228882	0.000152588	
5.63965	0.0238037	0.000762939	
5.63904	0.022583	0.000610352	
5.64026	0.0231934	0.000457764	
5.63965	0.022583	0.000305176	
5.63812	0.0228882	0.000915527	
5.63538	0.0228882	0.000457764	
5.63538	0.0231934	0.000457764	
5.63416	0.0228882	-0.000152588	
5.63477	0.022583	-0.000762939	
5.63477	0.0231934	0.000305176	
5.63446	0.0228882	0.000457764	
5.63416	0.0231934	0.000152588	
5.6311	0.0228882	0	
5.63019	0.0234985	0	
5.62927	0.0268555	0.000610352	
5.62927	0.0280762	0.000610352	
5.62958	0.0283813	0.000152588	
5.62866	0.0280762	0.000610352	
5.62592	0.027771	0.000610352	
5.625	0.0274658	0	
5.62469	0.027771	0.000457764	
5.62469	0.0271606	0	
5.62469	0.027771	0	
5.62378	0.0283813	-0.000152588	
5.62103	0.027771	0.000457764	
5.62042	0.027771	0.000610352	
5.62012	0.027771	0.000152588	
5.62012	0.027771	0.00106812	
5.62012	0.027771	0.0012207	
5.6192	0.0280762	0.000305176	
5.61646	0.0283813	0.000762939	
5.61523	0.0280762	0.000762939	
5.61493	0.027771	0.000762939	
5.61432	0.0271606	0.000762939	
5.61432	0.027771	0.000457764	
5.61493	0.0274658	-0.000152588	
5.61462	0.027771	0.000610352	
5.61157	0.027771	0.000457764	
5.61035	0.0283813	0.000457764	
5.60944	0.027771	0.000457764	
5.61005	0.0283813	0.00106812	
5.61035	0.027771	0.000762939	
5.60944	0.027771	0.000457764	
5.60638	0.0271606	0.000457764	
5.60516	0.0280762	0.000610352	
5.60486	0.0274658	0.000762939	
5.60486	0.0280762	0.000457764	
5.60547	0.027771	-0.000457764	
5.60455	0.0280762	-0.000610352	
5.60089	0.0283813	0	
5.60089	0.0296021	0.000610352	
5.6012	0.0317383	0.000457764	
5.59967	0.0326538	0	
5.60028	0.032959	0.000457764	
5.59967	0.0332642	0.000305176	
5.59937	0.032959	0.000762939	
5.59631	0.032959	0.000457764	
5.5954	0.0323486	0.000152588	
5.59509	0.0326538	0.000305176	
5.5954	0.0332642	0	
5.59479	0.0320435	0.000152588	
5.59448	0.0332642	0.000152588	
5.59174	0.0326538	0.000457764	
5.59021	0.0320435	0	
5.59052	0.0326538	0.000762939	
5.59021	0.0332642	0.000152588	
5.59052	0.0326538	0.000457764	
5.58929	0.032959	0.0012207	
5.58655	0.0323486	0.00152588	
5.58533	0.0326538	0.000305176	
5.58533	0.032959	0.000762939	
5.58502	0.0326538	0.000610352	
5.58533	0.032959	0.000762939	
5.58502	0.032959	0.000457764	
5.58472	0.032959	0.000305176	
5.58167	0.032959	0.000152588	
5.58075	0.0332642	0.000152588	
5.58105	0.0326538	0.000457764	
5.58044	0.0326538	0.000457764	
5.58014	0.0323486	0.000305176	
5.57953	0.0326538	0.000762939	
5.57678	0.032959	0.000762939	
5.57526	0.0323486	0.000457764	
5.57434	0.0323486	0.000457764	
5.57526	0.0335693	0.000457764	
5.57526	0.032959	0.000610352	
5.57526	0.0323486	0.000457764	
5.57495	0.032959	-0.000305176	
5.5719	0.0326538	-0.000762939	
5.57037	0.0326538	0.000152588	
5.56946	0.0335693	0.000152588	
5.57068	0.0323486	0.000305176	
5.57037	0.0323486	0	
5.56976	0.032959	0.000152588	
5.56763	0.0332642	0.000457764	
5.56519	0.0326538	0.000457764	
5.56549	0.0341797	0.000305176	
5.5658	0.0369263	0.000610352	
5.56519	0.038147	0.000457764	
5.5658	0.0375366	0.000152588	
5.56488	0.0372314	0.000457764	
5.56213	0.0378418	0	
5.56061	0.0378418	-0.000152588	
5.56061	0.0378418	0.000457764	
5.5603	0.0375366	0.000152588	
5.56	0.0384521	0.000152588	
5.55939	0.0378418	0.000610352	
5.55664	0.0378418	0.0012207	
5.55573	0.0375366	0.00152588	
5.55542	0.0378418	0.000915527	
5.55573	0.0372314	0.000610352	
5.55573	0.0378418	0.000915527	
5.55542	0.0378418	0.000762939	
5.55542	0.038147	0.000610352	
5.5545	0.0372314	0.000305176	
5.55206	0.038147	0.000457764	
5.55115	0.0375366	0.000915527	
5.55023	0.038147	0.000305176	
5.55023	0.0378418	0.000457764	
5.55084	0.038147	0.000305176	
5.54993	0.0375366	0.000915527	
5.54749	0.0378418	0.00106812	
5.54626	0.0375366	0.000305176	
5.54535	0.0378418	0.000762939	
5.54565	0.0378418	0.000610352	
5.54565	0.0378418	0.00106812	
5.54504	0.0378418	0.000610352	
5.54504	0.0378418	-0.000457764	
5.5423	0.0378418	-0.000457764	
5.54108	0.0375366	0.000305176	
5.54077	0.0372314	0	
5.54077	0.0378418	0	
5.54108	0.0375366	-0.000152588	
5.54108	0.0378418	0.000152588	
5.54016	0.0378418	0.000610352	
5.53741	0.0375366	0.000762939	
5.5365	0.0378418	0.000152588	
5.53589	0.0375366	0.000457764	
5.53619	0.0378418	0.000152588	
5.5365	0.0378418	0.000152588	
5.53528	0.0378418	-0.000152588	
5.53284	0.0387573	0.000610352	
5.53101	0.0375366	-0.000457764	
5.53101	0.0375366	0.000305176	
5.53131	0.0375366	0	
5.53101	0.0375366	0.000152588	
5.53101	0.0378418	0.000610352	
5.53009	0.038147	0.00106812	
5.52734	0.0375366	0.00152588	
5.52551	0.0378418	0.000762939	
5.52612	0.0375366	0.000152588	
5.52612	0.0375366	0.000915527	
5.52582	0.0378418	0.000457764	
5.52582	0.0372314	0.000915527	
5.52582	0.0375366	0.000457764	
5.52216	0.0378418	0.000305176	
5.52185	0.0378418	0.000457764	
5.52063	0.0375366	0	
5.52094	0.0378418	0.000305176	
5.52155	0.038147	0.000610352	
5.52063	0.0384521	0.000915527	
5.52002	0.0378418	0.000762939	
5.51758	0.0375366	0.000610352	
5.51605	0.0375366	0.000610352	
5.51697	0.038147	0.000610352	
5.51636	0.0375366	0.000610352	
5.51605	0.0375366	0.000610352	
5.51636	0.0375366	-0.000305176	
5.51575	0.0378418	-0.000762939	
5.513	0.0378418	-0.000152588	
5.51147	0.0372314	0	
5.51086	0.0378418	0	
5.51117	0.0378418	0.000152588	
5.51117	0.0378418	0.000152588	
5.51178	0.0378418	0.000305176	
5.51056	0.038147	0.00106812	
5.50812	0.0372314	0.000305176	
5.50659	0.0375366	0.000762939	
5.5069	0.0372314	0.000305176	
5.50598	0.038147	0.000305176	
5.50629	0.0378418	0	
5.50629	0.0378418	0.000152588	
5.50598	0.0378418	0	
5.50232	0.0378418	0.000457764	
5.5011	0.0378418	-0.000152588	
5.5014	0.0378418	0.000305176	
5.5011	0.0375366	0.000305176	
5.50171	0.0378418	0.0012207	
5.50079	0.0378418	0.0012207	
5.50079	0.0378418	0.000915527	
5.49805	0.038147	0.000152588	
5.49652	0.0378418	0.000762939	
5.49622	0.0375366	0.000762939	
5.49683	0.0378418	0.000762939	
5.49652	0.0375366	0.000152588	
5.49652	0.0372314	0.000457764	
5.49591	0.0378418	0.000610352	
5.49347	0.0375366	0.000152588	
5.49225	0.0378418	0.000305176	
5.49164	0.0384521	0.000305176	
5.49133	0.0375366	0.0012207	
5.49164	0.0375366	0.000915527	
5.49133	0.0375366	0.000305176	
5.49103	0.0378418	0.000762939	
5.48828	0.038147	0.000457764	
5.48645	0.0378418	0.000457764	
5.48584	0.0375366	0.000610352	
5.48584	0.0375366	-0.000457764	
5.48615	0.0375366	-0.000457764	
5.48676	0.0372314	0	
5.48553	0.038147	0.000152588	
5.4837	0.0369263	0.000305176	
5.48187	0.0378418	-0.000152588	
5.48187	0.0378418	0.000610352	
5.48218	0.0378418	0.000457764	
5.48157	0.0375366	0.000762939	
5.48187	0.0375366	0.000305176	
5.48065	0.0378418	0.000610352	
5.47729	0.0375366	0.000457764	
5.47699	0.0375366	0.000305176	
5.47668	0.0378418	0	
5.47668	0.0375366	0.000457764	
5.47699	0.0375366	0.000152588	
5.47607	0.0378418	0.000305176	
5.47638	0.0375366	0.000457764	
5.47302	0.0378418	0.000457764	
5.47241	0.0375366	0.000457764	
5.4718	0.0375366	0.00106812	
5.47211	0.0372314	0.0012207	
5.4718	0.0375366	0.000762939	
5.4718	0.0372314	0.000457764	
5.4718	0.0375366	0.00106812	
5.47119	0.0375366	0.000610352	
5.46783	0.0372314	0.000457764	
5.46722	0.038147	0.000152588	
5.46722	0.0372314	0.000152588	
5.46753	0.0378418	0.000457764	
5.46692	0.0378418	0.000457764	
5.46661	0.0378418	0.000305176	
5.46631	0.0372314	0.000457764	
5.46326	0.038147	0.000915527	
5.46234	0.0372314	0.000762939	
5.46204	0.0375366	0.000762939	
5.46234	0.0369263	0.000762939	
5.46204	0.0378418	0.000610352	
5.46234	0.0375366	0.000915527	
5.46173	0.038147	0.000610352	
5.45898	0.038147	-0.000152588	
5.45685	0.0378418	-0.000457764	
5.45654	0.0375366	0.000152588	
5.45654	0.0378418	-0.000152588	
5.45685	0.038147	0.000305176	
5.45715	0.0375366	-0.000152588	
5.45624	0.0375366	0.000457764	
5.45349	0.0390625	0.000305176	
5.45258	0.0415039	0.000610352	
5.45197	0.0427246	0.000305176	
5.45227	0.043335	0.000610352	
5.45166	0.0427246	0.000610352	
5.45227	0.0430298	0	
5.45166	0.0424194	-0.000610352	
5.45166	0.0427246	0.000305176	
5.44861	0.0418091	0	
5.44678	0.0427246	0.000152588	
5.44678	0.0424194	0.000457764	
5.44678	0.0430298	0.000152588	
5.44739	0.043335	0.000305176	
5.44678	0.0424194	0.00137329	
5.44647	0.0427246	0.00183105	
5.44312	0.0427246	0.000762939	
5.4422	0.0430298	0.000305176	
5.4422	0.0424194	0.000915527	
5.44189	0.0430298	0.000762939	
5.4425	0.0424194	0.000457764	
5.44189	0.043335	0.000152588	
5.44189	0.0424194	0.000610352	
5.44189	0.0430298	0.000457764	
5.43884	0.0427246	0.000152588	
5.43762	0.0427246	0.000610352	
5.43701	0.0430298	0.000457764	
5.43701	0.0427246	0.000610352	
5.43762	0.0430298	0.000915527	
5.43732	0.0427246	0.000457764	
5.43579	0.0427246	0.000610352	
5.43365	0.043335	0.000915527	
5.43274	0.0418091	0.000915527	
5.43213	0.0427246	0.000457764	
5.43274	0.0430298	-0.000152588	
5.43274	0.0430298	-0.000610352	
5.43243	0.0427246	0.000305176	
5.43213	0.0430298	0	
5.43213	0.0424194	0.000152588	
5.42908	0.0430298	0.000152588	
5.42725	0.0430298	0.000305176	
5.42694	0.0427246	0.000457764	
5.42755	0.0424194	0.000457764	
5.42633	0.0421143	0.000305176	
5.42786	0.0436401	0.000610352	
5.42725	0.0421143	0.000762939	
5.42694	0.0430298	0.000152588	
5.42328	0.0424194	-0.000152588	
5.42267	0.0427246	0.000152588	
5.42236	0.0424194	0	
5.42267	0.0427246	0.000305176	
5.42267	0.0430298	0.000305176	
5.42206	0.0430298	0.000305176	
5.42236	0.0421143	0.000305176	
5.41901	0.0427246	0.0012207	
5.41779	0.0430298	0.00137329	
5.41748	0.0427246	0.000762939	
5.41748	0.0424194	0.000305176	
5.41748	0.0424194	0.00106812	
5.41748	0.0427246	0.000457764	
5.41718	0.0427246	0.000457764	
5.41718	0.0424194	0.000457764	
5.41351	0.0424194	0	
5.4129	0.043335	0.000610352	
5.41229	0.0421143	0.000152588	
5.4126	0.0427246	0.000152588	
5.41229	0.0430298	0.00106812	
5.4129	0.0424194	0.000457764	
5.41229	0.0427246	0.000762939	
5.41199	0.043335	0.000457764	
5.40924	0.0460815	0.000762939	
5.40802	0.0479126	0.000610352	
5.40741	0.0476074	0.000762939	
5.40802	0.0476074	0.000457764	
5.40741	0.0482178	-0.000305176	
5.40741	0.0479126	-0.000457764	
5.40741	0.0473022	-0.000152588	
5.4071	0.0476074	0	
5.40436	0.0469971	0.000152588	
5.40314	0.0473022	0	
5.40314	0.0469971	0.000457764	
5.40192	0.0476074	0.000457764	
5.40253	0.0469971	0.000915527	
5.40222	0.0473022	0.000152588	
5.40253	0.0473022	0.000305176	
5.40222	0.0473022	0.000457764	
5.39886	0.0473022	-0.000152588	
5.39764	0.0476074	0	
5.39795	0.0476074	0.000457764	
5.39734	0.0473022	-0.000152588	
5.39764	0.0469971	0.000762939	
5.39764	0.0479126	-0.000152588	
5.39795	0.0482178	0.000457764	
5.39703	0.0479126	0.000152588	
5.39398	0.0473022	0.000915527	
5.39337	0.0469971	0.00183105	
5.39276	0.0473022	0.000305176	
5.39276	0.0479126	0.000762939	
5.39185	0.0469971	0.000915527	
5.39307	0.0476074	0.000915527	
5.39276	0.0473022	0.000152588	
5.39185	0.0473022	0.000457764	
5.38971	0.0476074	0	
5.38788	0.0485229	0.000610352	
5.38757	0.0476074	0.000152588	
5.38818	0.0476074	0.000305176	
5.38788	0.0479126	0.000457764	
5.38757	0.0479126	0.000762939	
5.38757	0.0473022	0.000915527	
5.38818	0.0469971	0.000305176	
5.38696	0.0479126	0.000915527	
5.38391	0.0479126	0.000610352	
5.3833	0.0476074	0.000457764	
5.38239	0.0479126	0.000305176	
5.38239	0.0473022	-0.000152588	
5.38361	0.0473022	-0.000762939	
5.3833	0.0476074	0.000152588	
5.38361	0.0485229	0.000152588	
5.38269	0.0476074	0.000457764	
5.37933	0.0479126	0	
5.37781	0.0479126	0.000457764	
5.37811	0.0479126	0.000457764	
5.37811	0.0476074	0.000762939	
5.37872	0.0466919	0.000457764	
5.37811	0.0476074	0.000457764	
5.37811	0.0476074	0.000762939	
5.3775	0.0466919	0.000305176	
5.37384	0.0473022	-0.000152588	
5.37323	0.0488281	0	
5.37262	0.0518799	0.000152588	
5.37201	0.0527954	0.000457764	
5.37323	0.0524902	0.000152588	
5.37231	0.0524902	0	
5.37231	0.0524902	0.000610352	
5.37262	0.0521851	0.000915527	
5.37262	0.0518799	0.00152588	
5.36926	0.0531006	0.000610352	
5.36865	0.0524902	0.000610352	
5.36865	0.0521851	0.00106812	
5.36835	0.0518799	0.000762939	
5.36804	0.0521851	0.000762939	
5.36804	0.0527954	0.000457764	
5.36835	0.0524902	0.000305176	
5.36835	0.0524902	0.000762939	
5.36804	0.0524902	0.000305176	
5.36469	0.0524902	0.000305176	
5.36407	0.0524902	0.000610352	
5.36377	0.0518799	0.000610352	
5.36285	0.0521851	0.000915527	
5.36285	0.0527954	0.000610352	
5.36285	0.0524902	0.000762939	
5.36407	0.0524902	0.000457764	
5.36224	0.0521851	0.000610352	
5.35919	0.0531006	0.000610352	
5.35828	0.0521851	-0.000305176	
5.35797	0.0521851	-0.000762939	
5.35889	0.0521851	0.000457764	
5.35828	0.0524902	0	
5.35889	0.0521851	0.000457764	
5.35828	0.0524902	-0.000152588	
5.35828	0.0524902	0.000610352	
5.35828	0.0527954	0.000305176	
5.35461	0.0524902	0.000305176	
5.35461	0.0524902	0.000457764	
5.3537	0.0527954	0.000457764	
5.3537	0.0527954	0.000305176	
5.3537	0.0527954	0.000305176	
5.35309	0.0524902	-0.000152588	
5.35431	0.0524902	0.000305176	
5.35278	0.0518799	-0.000152588	
5.35248	0.0521851	0.000152588	
5.34943	0.0521851	0.000305176	
5.34882	0.0527954	0.000152588	
5.34821	0.0527954	0.000305176	
5.34851	0.0518799	0.00152588	
5.34821	0.0524902	0.00137329	
5.3476	0.0521851	0.000610352	
5.34882	0.0524902	0.000457764	
5.34851	0.0527954	0.000610352	
5.34821	0.0524902	0.000457764	
5.34485	0.0524902	0.000762939	
5.34393	0.0524902	0.000457764	
5.34332	0.0527954	0.000152588	
5.34363	0.0524902	0.000610352	
5.34332	0.0524902	0.000305176	
5.34393	0.0524902	0.000305176	
5.34393	0.0527954	0.000610352	
5.34393	0.0527954	0.000762939	
5.34363	0.0521851	0.00106812	
5.34302	0.0524902	0.000305176	
5.33966	0.0524902	0.000915527	
5.33844	0.0527954	0.000610352	
5.33875	0.0531006	0.00106812	
5.33875	0.0564575	0.000457764	
5.33844	0.0576782	-0.000457764	
5.33813	0.0567627	-0.000762939	
5.33875	0.0570679	0.000152588	
5.33813	0.0585938	-0.000152588	
5.33813	0.0570679	0	
5.33569	0.0570679	-0.000152588	
5.33417	0.0576782	0.000457764	
5.33417	0.0579834	0.000762939	
5.33356	0.0570679	0.000610352	
5.33356	0.057373	0.000305176	
5.33356	0.0570679	0.000457764	
5.33295	0.0576782	0.000305176	
5.33325	0.0576782	0.000305176	
5.33356	0.0576782	-0.000457764	
5.33325	0.0576782	0.000305176	
5.3302	0.0567627	0.000152588	
5.32898	0.0585938	0.000305176	
5.32898	0.0570679	0.000305176	
5.32867	0.0567627	-0.000152588	
5.32867	0.057373	0.000305176	
5.32928	0.0567627	0.00106812	
5.32867	0.057373	0.00137329	
5.32837	0.057373	0	
5.32806	0.057373	0.000305176	
5.32471	0.0570679	0.000762939	
5.3241	0.057373	0.000457764	
5.32379	0.057373	0.000457764	
5.32349	0.0570679	0.000610352	
5.3241	0.0576782	0.000305176	
5.32379	0.057373	0.000610352	
5.32349	0.0570679	0.000305176	
5.3244	0.057373	0.000610352	
5.32318	0.057373	0.000610352	
5.32288	0.057373	0.000762939	
5.32043	0.0579834	0.000915527	
5.31891	0.0570679	0.000762939	
5.31799	0.0570679	0.000915527	
5.31891	0.0570679	0.000610352	
5.31952	0.0567627	0.000762939	
5.31891	0.057373	0.000305176	
5.31891	0.0570679	-0.000610352	
5.31921	0.0567627	-0.000457764	
5.31891	0.0570679	0.000457764	
5.31891	0.057373	0	
5.31586	0.0570679	0.000305176	
5.31372	0.0576782	0.000305176	
5.31372	0.057373	0.000305176	
5.31372	0.0570679	0.000762939	
5.31036	0.0576782	0.000610352	
5.30945	0.0567627	0.000305176	
5.30914	0.057373	0.000762939	
5.30975	0.0570679	0.000610352	
5.30853	0.057373	0.000152588	
5.30914	0.057373	-0.000305176	
5.30975	0.0582886	0.000152588	
5.30945	0.0576782	-0.000305176	
5.30853	0.0570679	0.000152588	
5.30518	0.0576782	0.000457764	
5.30365	0.057373	0.000305176	
5.30426	0.057373	0.000457764	
5.30396	0.057373	0.0012207	
5.30365	0.0576782	0.00152588	
5.30396	0.057373	0.000457764	
5.30426	0.0576782	0.000457764	
5.30365	0.057373	0.000762939	
5.30365	0.057373	0.000305176	
5.30396	0.057373	0.000305176	
5.30121	0.0576782	0.000457764	
5.29938	0.0570679	0.000457764	
5.29877	0.0579834	0.000610352	
5.29938	0.0579834	0.000305176	
5.29907	0.0610352	0.000305176	
5.29938	0.0622559	0.000762939	
5.29907	0.0622559	0.0012207	
5.29938	0.0619507	0.000305176	
5.29968	0.0622559	0.000305176	
5.29877	0.0619507	0.000457764	
5.29572	0.0616455	0.000762939	
5.29419	0.0628662	0.000762939	
5.29388	0.0628662	0.000610352	
5.29358	0.0622559	-0.000457764	
5.29358	0.0619507	-0.000457764	
5.29419	0.0619507	0	
5.29358	0.0619507	0.000305176	
5.2948	0.0622559	0.000305176	
5.29388	0.0616455	0.000305176	
5.29388	0.0619507	0.000457764	
5.29388	0.0628662	0.000762939	
5.29083	0.0619507	0.000610352	
5.28931	0.062561	0.000305176	
5.28839	0.0622559	0.000457764	
5.289	0.0619507	0.000152588	
5.289	0.0619507	0	
5.28992	0.0616455	0	
5.28961	0.0619507	0.000152588	
5.28961	0.0622559	0	
5.289	0.0622559	0	
5.2887	0.062561	0.000457764	
5.28595	0.0619507	0.000152588	
5.28503	0.0622559	0.000457764	
5.28442	0.062561	0.00167847	
5.28473	0.0622559	0.00152588	
5.28442	0.0619507	0.000915527	
5.28473	0.0622559	0.000610352	
5.28442	0.062561	0.000762939	
5.28412	0.0622559	0	
5.28412	0.0616455	0.000457764	
5.28503	0.0622559	0.000610352	
5.28412	0.0622559	0.000305176	
5.28137	0.0619507	0.000610352	
5.27954	0.0619507	0.000305176	
5.27954	0.0622559	0.000610352	
5.27954	0.0622559	0.000457764	
5.27985	0.0622559	0.00106812	
5.27893	0.062561	0.000762939	
5.27985	0.062561	0.000305176	
5.27985	0.0619507	0.000762939	
5.27985	0.0622559	0.000610352	
5.27954	0.0622559	0.000610352	
5.27863	0.062561	0.000305176	
5.27557	0.0622559	0	
5.27466	0.062561	-0.000610352	
5.27435	0.0622559	0.000305176	
5.27435	0.0631714	0.000152588	
5.27435	0.0622559	0.000152588	
5.27405	0.062561	0.000152588	
5.27466	0.0622559	0.000457764	
5.27466	0.062561	0.000915527	
5.27405	0.062561	0.000610352	
5.27435	0.0616455	0.000152588	
5.27374	0.0619507	0.000457764	
5.271	0.062561	0.000457764	
5.26917	0.0619507	0	
5.26947	0.0628662	-0.000457764	
5.26886	0.0628662	0.000457764	
5.27008	0.0619507	0.000152588	
5.26947	0.0622559	0.000152588	
5.26978	0.0628662	0.000305176	
5.26917	0.0616455	0.000610352	
5.27008	0.0622559	0.000457764	
5.26978	0.0619507	0.0012207	
5.26947	0.0622559	0.0012207	
5.26642	0.0628662	0.000457764	
5.2655	0.0622559	0.000457764	
5.26428	0.0631714	0.000610352	
5.26489	0.0619507	0.000305176	
5.26489	0.0628662	0.000305176	
5.26489	0.062561	0.000457764	
5.2652	0.0622559	0.000305176	
5.26459	0.0637817	0.000610352	
5.26459	0.0665283	0.000152588	
5.26459	0.0671387	0.000305176	
5.26367	0.0668335	0.000457764	
5.26184	0.0674438	0.00137329	
5.2597	0.0674438	0.000457764	
5.25909	0.0671387	0.000305176	
5.25909	0.0668335	0.000610352	
5.2594	0.0671387	0.000610352	
5.26001	0.0665283	0.000610352	
5.2597	0.0668335	0.000305176	
5.2594	0.0668335	-0.000762939	
5.2594	0.0671387	-0.000762939	
5.25909	0.067749	0.000152588	
5.25879	0.0671387	0.000152588	
5.25604	0.0671387	0.000152588	
5.25513	0.0674438	0.000305176	
5.25482	0.0668335	0.000305176	
5.25482	0.0668335	0.000457764	
5.25452	0.0671387	0.000457764	
5.25482	0.067749	0.000610352	
5.25482	0.0674438	0.000457764	
5.25513	0.0671387	0.000305176	
5.25452	0.0668335	0.000305176	
5.25391	0.067749	-0.000305176	
5.25482	0.0671387	0.000152588	
5.25513	0.0674438	-0.000305176	
5.2536	0.0671387	0.000305176	
5.25116	0.0671387	-0.000152588	
5.24963	0.0671387	0	
5.24933	0.0665283	0.000762939	
5.24933	0.067749	0.0012207	
5.24933	0.067749	0.0012207	
5.24994	0.0671387	0.000915527	
5.24963	0.0686646	0.000762939	
5.24994	0.0674438	0.000915527	
5.24933	0.0671387	0.000305176	
5.24963	0.067749	0.000610352	
5.24963	0.0668335	0.000457764	
5.24994	0.0668335	0.000457764	
5.24963	0.0665283	0.000457764	
5.24933	0.0665283	0.000457764	
5.24963	0.0671387	0.000305176	
5.24902	0.0674438	0.000762939	
5.24536	0.0674438	0.000762939	
5.24567	0.0674438	0.000610352	
5.24445	0.0668335	0.000457764	
5.24445	0.067749	0.000762939	
5.24445	0.0674438	0.000610352	
5.24506	0.0674438	0.000610352	
5.24445	0.067749	0.000610352	
5.24506	0.0671387	-0.000457764	
5.24475	0.0674438	-0.000305176	
5.24506	0.0674438	0.000305176	
5.24445	0.0668335	-0.000152588	
5.24078	0.0668335	0.000457764	
5.23987	0.0662231	0.000457764	
5.23987	0.0671387	0.000762939	
5.24048	0.0668335	0.000762939	
5.23956	0.0671387	0.000305176	
5.24017	0.0674438	0.000457764	
5.23956	0.0668335	0.000457764	
5.24017	0.0671387	0.000457764	
5.23987	0.0674438	0.000152588	
5.24017	0.0674438	-0.000915527	
5.23956	0.0668335	0.000152588	
5.23956	0.0671387	0.000152588	
5.23682	0.0668335	0.000152588	
5.23499	0.0662231	0.000152588	
5.23529	0.0674438	0.000152588	
5.23438	0.0674438	0.000610352	
5.23499	0.0680542	0.00137329	
5.23499	0.0671387	0.000915527	
5.23499	0.0683594	0.000762939	
5.23529	0.0668335	0.000457764	
5.23499	0.067749	0.000762939	
5.23499	0.0668335	0.000152588	
5.23438	0.067749	0.000457764	
5.23193	0.067749	0.000457764	
5.23041	0.0668335	0.000152588	
5.23041	0.0674438	0.000762939	
5.2298	0.0662231	0.000457764	
5.23071	0.0668335	0.000457764	
5.2298	0.0668335	0.000610352	
5.23041	0.0674438	0.00106812	
5.2301	0.0674438	0.000762939	
5.23071	0.0671387	0.000762939	
5.2301	0.0668335	0.00106812	
5.23041	0.067749	0.000457764	
5.22919	0.0674438	0.000457764	
5.22705	0.0668335	0.000305176	
5.22522	0.0671387	-0.000457764	
5.22522	0.0671387	-0.000457764	
5.22583	0.0671387	0.000152588	
5.22552	0.0671387	0	
5.22491	0.0668335	0.000610352	
5.22461	0.0671387	0.000305176	
5.22491	0.0665283	0.000610352	
5.22491	0.0668335	0.000457764	
5.22522	0.0671387	0.000305176	
5.22461	0.0665283	0.000305176	
5.22125	0.0668335	0.000457764	
5.22095	0.0671387	0.000457764	
5.21942	0.067749	0	
5.22034	0.067749	-0.000457764	
5.22034	0.0668335	0.000457764	
5.22034	0.0668335	-0.000152588	
5.22034	0.0662231	0.000610352	
5.22003	0.0674438	0.000305176	
5.22034	0.0671387	0	
5.22003	0.0674438	0.000610352	
5.22034	0.0674438	0.0012207	
5.21881	0.0674438	0.0012207	
5.21698	0.0668335	0.000762939	
5.21606	0.0671387	0.000457764	
5.21545	0.067749	0.000305176	
5.21576	0.0665283	0.000610352	
5.21576	0.0671387	0.000610352	
5.21576	0.0674438	0.000305176	
5.21545	0.0671387	0.000152588	
5.21606	0.0668335	0.000610352	
5.21484	0.0674438	0.000610352	
5.21515	0.0674438	0.000610352	
5.21393	0.067749	0.000610352	
5.21179	0.0662231	0.000915527	
5.21057	0.0665283	0.000915527	
5.21057	0.0671387	0.000762939	
5.21088	0.0668335	0.000762939	
5.21057	0.067749	0.000457764	
5.21057	0.0668335	0.000915527	
5.20996	0.067749	0.000152588	
5.20935	0.0674438	-0.000457764	
5.21088	0.0665283	-0.000305176	
5.21057	0.0674438	0.000457764	
5.21027	0.0671387	-0.000152588	
5.20935	0.0668335	0.000305176	
5.2066	0.0668335	0.000152588	
5.20599	0.0668335	0.000762939	
5.20508	0.0668335	0.000305176	
5.20477	0.067749	0.000305176	
5.20599	0.0671387	0.000305176	
5.20508	0.0668335	0.000305176	
5.20569	0.0668335	0.000610352	
5.20599	0.0674438	0.000305176	
5.20538	0.0668335	-0.000610352	
5.20569	0.0674438	0.000152588	
5.20569	0.0671387	0.000305176	
5.20447	0.0671387	0.000305176	
5.20142	0.0668335	0	
5.20081	0.0674438	0.000152588	
5.2002	0.0683594	0.000457764	
5.20081	0.0674438	0.00152588	
5.20081	0.0671387	0.00106812	
5.2005	0.0674438	0.000457764	
5.20081	0.0665283	0.000610352	
5.20081	0.0668335	0.000305176	
5.20142	0.0674438	0.000305176	
5.20111	0.0674438	0.000457764	
5.2002	0.0665283	0.000610352	
5.19653	0.0674438	0.000457764	
5.19592	0.0674438	0.000457764	
5.19531	0.0671387	0.000762939	
5.19562	0.0671387	0.000305176	
5.19623	0.0668335	0.000915527	
5.19623	0.0668335	0.000915527	
5.19501	0.0674438	0.000915527	
5.19562	0.0665283	0.000457764	
5.19562	0.0668335	0.000915527	
5.19562	0.0674438	0.000610352	
5.19592	0.0668335	0.000610352	
5.1947	0.0671387	0.000152588	
5.19196	0.0671387	-0.000152588	
5.19104	0.0671387	-0.000610352	
5.19073	0.067749	0.000152588	
5.19104	0.0671387	-0.000152588	
5.19104	0.0671387	0.000305176	
5.19073	0.0671387	0.000152588	
5.19073	0.0668335	0.000305176	
5.19073	0.0665283	0.000762939	
5.19104	0.0671387	0.000610352	
5.19043	0.0674438	0.000305176	
5.19104	0.0674438	0.000457764	
5.19043	0.0671387	0.000457764	
5.18677	0.0674438	0	
5.18616	0.0671387	-0.000305176	
5.18555	0.0662231	0.000305176	
5.18555	0.067749	0	
5.18616	0.0671387	0.000457764	
5.18585	0.0668335	0.000457764	
5.18616	0.0671387	0.000152588	
5.18585	0.067749	0.000762939	
5.18585	0.0674438	0.00106812	
5.18616	0.0674438	0.00106812	
5.18555	0.065918	0.000762939	
5.18494	0.0634766	0.000457764	
5.1825	0.0619507	0.000152588	
5.18158	0.0619507	0.000305176	
5.18097	0.0622559	0.000457764	
5.18097	0.062561	0.000305176	
5.18036	0.062561	0.000457764	
5.18097	0.0622559	0.000762939	
5.18127	0.0622559	0.000457764	
5.18097	0.0616455	0.000457764	
5.18127	0.0619507	0.000762939	
5.18097	0.0622559	0.0012207	
5.18097	0.0622559	0.000762939	
5.18036	0.0622559	0.000457764	
5.17731	0.0622559	0.000915527	
5.17609	0.0622559	0.000305176	
5.17609	0.0622559	0.000305176	
5.17639	0.0619507	0	
5.17578	0.062561	-0.000762939	
5.17609	0.0622559	-0.000457764	
5.17609	0.0622559	0.000457764	
5.17578	0.0613403	-0.000152588	
5.17639	0.0622559	0.000457764	
5.17609	0.0619507	0.000152588	
5.17578	0.0619507	0.000915527	
5.17578	0.0619507	0.000457764	
5.17548	0.062561	0.000762939	
5.17578	0.0622559	0.000457764	
5.17609	0.0619507	0.000457764	
5.17578	0.0622559	0.000457764	
5.17578	0.0619507	0.000305176	
5.17578	0.0619507	-0.000305176	
5.17487	0.062561	0.000457764	
5.17212	0.062561	0	
5.17151	0.0628662	0.000457764	
5.17059	0.0622559	0	
5.17059	0.062561	0.000305176	
5.16998	0.062561	0.000610352	
5.16754	0.0619507	0.00137329	
5.16632	0.0628662	0.00152588	
5.16632	0.062561	0.000305176	
5.16602	0.062561	0.000457764	
5.16632	0.0619507	0.000457764	
5.16632	0.062561	0	
5.16632	0.0622559	0.000457764	
5.16602	0.0619507	0.000457764	
5.16602	0.0622559	0.000152588	
5.16602	0.0616455	0.000457764	
5.16571	0.0628662	0.000457764	
5.16571	0.0619507	0.000457764	
5.16541	0.0634766	0.000762939	
5.16235	0.062561	0.0012207	
5.16144	0.0622559	0.00106812	
5.16083	0.0628662	0.000305176	
5.16113	0.0616455	0.000457764	
5.16113	0.0619507	0.000457764	
5.16113	0.0628662	0.000762939	
5.16052	0.0622559	0.000152588	
5.16113	0.062561	-0.000610352	
5.16113	0.0628662	-0.000152588	
5.16113	0.062561	0.000457764	
5.16144	0.062561	-0.000152588	
5.16052	0.0628662	0.000305176	
5.15778	0.0622559	0	
5.15686	0.0622559	0.000457764	
5.15625	0.062561	0.000457764	
5.15594	0.0628662	0.000762939	
5.15594	0.0619507	0.000152588	
5.15625	0.062561	0.000610352	
5.15625	0.0619507	0.000762939	
5.15564	0.0622559	0.000305176	
5.15594	0.0619507	-0.000915527	
5.15625	0.0622559	0	
5.15625	0.0619507	-0.000152588	
5.15503	0.0622559	0.000305176	
5.15228	0.0619507	0.000152588	
5.15259	0.0616455	0	
5.15106	0.0628662	0.000305176	
5.15106	0.0622559	0.00106812	
5.15167	0.062561	0.00137329	
5.15137	0.062561	0.000305176	
5.15137	0.0631714	0.000610352	
5.15167	0.0619507	0.000610352	
5.15137	0.0616455	0.000305176	
5.15167	0.062561	0.000610352	
5.15198	0.0619507	0.000457764	
5.15198	0.0619507	0.000305176	
5.15045	0.0628662	0.000915527	
5.14801	0.062561	0.000305176	
5.14709	0.062561	0.000305176	
5.14557	0.062561	0.000457764	
5.14648	0.0622559	0.000915527	
5.14648	0.062561	0.000610352	
5.14679	0.0619507	0.000305176	
5.14679	0.0622559	0.000610352	
5.14618	0.062561	0.000610352	
5.14679	0.062561	0.000762939	
5.14679	0.062561	0.000152588	
5.14648	0.062561	-0.000152588	
5.14648	0.0619507	-0.000457764	
5.14282	0.0622559	0.000457764	
5.1416	0.062561	0	
5.14191	0.0619507	0.000762939	
5.14069	0.062561	0	
5.1413	0.0622559	0.000762939	
5.14099	0.0619507	0.000457764	
5.1416	0.0619507	0.000762939	
5.1416	0.062561	0.000305176	
5.1413	0.062561	0.000457764	
5.1416	0.062561	0.000305176	
5.14099	0.0622559	0.000152588	
5.14099	0.0622559	-0.00106812	
5.14099	0.0622559	0.000610352	
5.13855	0.0619507	0.000305176	
5.13641	0.062561	0.000457764	
5.13611	0.0619507	0.000305176	
5.13672	0.062561	-0.000152588	
5.13641	0.0622559	0.000762939	
5.13641	0.0622559	0.00106812	
5.13672	0.0622559	0.00152588	
5.13672	0.062561	0.000610352	
5.13672	0.0622559	0.000610352	
5.13611	0.0622559	0.000915527	
5.13672	0.0619507	0.000305176	
5.13611	0.0622559	0.000762939	
5.13275	0.0619507	0.000762939	
5.13184	0.0619507	0.000610352	
5.13123	0.062561	0.000457764	
5.13153	0.0622559	0.000152588	
5.13214	0.0622559	0.000762939	
5.13214	0.0619507	0.000762939	
5.13123	0.0619507	0.0012207	
5.13184	0.0628662	0.000915527	
5.13092	0.0619507	0.000305176	
5.13123	0.062561	0.000915527	
5.13092	0.0622559	0.000762939	
5.13092	0.0622559	0.000762939	
5.13092	0.0622559	0.000152588	
5.12817	0.062561	-0.000610352	
5.12695	0.0622559	-0.000152588	
5.12634	0.0619507	0.000152588	
5.12604	0.062561	0	
5.12634	0.062561	0.000457764	
5.12695	0.0619507	-0.000152588	
5.12695	0.062561	0.000762939	
5.12695	0.062561	0.000915527	
5.12634	0.0622559	0.000457764	
5.12665	0.062561	0.000610352	
5.12695	0.0613403	0.000305176	
5.12634	0.062561	0.000152588	
5.12604	0.0616455	0.000152588	
5.12299	0.062561	-0.000610352	
5.12177	0.0622559	0.000305176	
5.12207	0.0619507	0	
5.12146	0.0628662	0.000457764	
5.12146	0.06073	0.000305176	
5.12177	0.0585938	0	
5.12146	0.057373	0.000762939	
5.12115	0.057373	0.00152588	
5.12207	0.0579834	0.00137329	
5.12146	0.057373	0.000457764	
5.12238	0.0576782	0.000610352	
5.12115	0.0570679	0.00106812	
5.12177	0.0579834	0.000305176	
5.12024	0.0570679	0.000305176	
5.11841	0.0567627	0.000152588	
5.11658	0.0570679	0.000457764	
5.11719	0.057373	0.000305176	
5.11719	0.0576782	0.000305176	
5.11627	0.0576782	0.000152588	
5.11627	0.057373	0.000915527	
5.11627	0.0576782	0.0012207	
5.11719	0.057373	0.000457764	
5.11719	0.057373	0.000457764	
5.11658	0.0570679	0.000610352	
5.11627	0.0576782	0.000762939	
5.11658	0.0579834	0.000762939	
5.11688	0.0576782	0.000457764	
5.11566	0.0576782	-0.000305176	
5.11383	0.0576782	0	
5.11261	0.0570679	0	
5.1123	0.0576782	0	
5.11108	0.057373	0.000152588	
5.11169	0.057373	0	
5.112	0.0576782	0.000457764	
5.11108	0.0570679	0.000457764	
5.11169	0.0567627	0.000152588	
5.11169	0.0576782	0.000152588	
5.11169	0.057373	0.000305176	
5.11261	0.0570679	0.000457764	
5.1123	0.0561523	0.000152588	
5.11078	0.0579834	-0.000610352	
5.10773	0.0576782	0.000762939	
5.10712	0.0576782	-0.000152588	
5.10651	0.0570679	0.000305176	
5.10681	0.0567627	0.000152588	
5.10651	0.0579834	0	
5.10651	0.0579834	0.000610352	
5.10712	0.057373	0.00106812	
5.10681	0.0579834	0.0012207	
5.10742	0.0579834	0.000762939	
5.10712	0.057373	0.000457764	
5.10651	0.0579834	0.000610352	
5.10712	0.0567627	0.000305176	
5.10681	0.0567627	0.000305176	
5.10742	0.057373	0.000457764	
5.10651	0.0576782	0.000152588	
5.10284	0.0576782	0.000610352	
5.10223	0.0570679	0.000305176	
5.10193	0.057373	0.000457764	
5.10223	0.0570679	0.000457764	
5.10132	0.0576782	0.00106812	
5.10223	0.057373	0.000915527	
5.10193	0.0570679	0.000305176	
5.10254	0.0570679	0.000610352	
5.10193	0.057373	0.000457764	
5.10132	0.0570679	0.00106812	
5.10162	0.0579834	0.000152588	
5.10193	0.057373	-0.000305176	
5.10162	0.057373	-0.000152588	
5.10071	0.057373	0	
5.09827	0.057373	-0.000152588	
5.09674	0.0567627	0.000457764	
5.09705	0.0570679	0.000152588	
5.09705	0.0576782	0.000457764	
5.09766	0.0579834	0.000915527	
5.09674	0.0570679	0.000457764	
5.09705	0.0570679	0.000457764	
5.09766	0.057373	0.000457764	
5.09766	0.0570679	0.000152588	
5.09705	0.057373	0.000305176	
5.09674	0.0570679	-0.000762939	
5.09644	0.057373	0.000610352	
5.09766	0.057373	0.000305176	
5.09583	0.0570679	0.000152588	
5.09277	0.0576782	0	
5.09216	0.057373	0	
5.09216	0.0570679	0.000915527	
5.09216	0.0570679	0.0012207	
5.09155	0.0576782	0.0012207	
5.09155	0.0567627	0.000457764	
5.09186	0.0531006	0.000457764	
5.09186	0.0524902	0.000762939	
5.09125	0.0524902	0.000762939	
5.09186	0.0524902	0.000305176	
5.09155	0.0521851	0.000610352	
5.09186	0.0531006	0.000305176	
5.09155	0.0518799	0.000610352	
5.09186	0.0518799	0.000305176	
5.09064	0.0518799	0.000762939	
5.0882	0.0524902	0.000610352	
5.08698	0.0524902	0.00106812	
5.08667	0.0527954	0.00106812	
5.08698	0.0531006	0.000610352	
5.08636	0.0524902	0.000762939	
5.08728	0.0521851	0.000762939	
5.08667	0.0524902	0.000610352	
5.08667	0.0527954	0.000305176	
5.08728	0.0531006	-0.000610352	
5.08667	0.0524902	-0.000305176	
5.08667	0.0524902	0.000305176	
5.08698	0.0531006	0	
5.08728	0.0524902	0.000457764	
5.08698	0.0524902	-0.000152588	
5.08636	0.0521851	0.000457764	
5.08331	0.0527954	0.000610352	
5.0824	0.0531006	0.000762939	
5.08148	0.0524902	0.000305176	
5.08148	0.0518799	0.000762939	
5.0824	0.0531006	0.000305176	
5.0827	0.0524902	0.000305176	
5.08148	0.0527954	-0.000457764	
5.0827	0.0524902	0.00106812	
5.08179	0.0521851	0.000152588	
5.0824	0.0518799	0.000152588	
5.08179	0.0518799	0	
5.08209	0.0518799	0.000152588	
5.0824	0.0524902	0.000915527	
5.08209	0.0524902	0.00106812	
5.08148	0.0524902	0.000915527	
5.07874	0.0521851	0.000305176	
5.07813	0.0521851	0.000305176	
5.07721	0.0524902	0.000762939	
5.07813	0.0521851	0	
5.07751	0.0524902	0.000305176	
5.07813	0.0524902	0.000305176	
5.07813	0.0521851	0.000457764	
5.07751	0.0521851	0	
5.07721	0.0521851	0.000610352	
5.07843	0.0527954	0.000610352	
5.07751	0.0524902	0.000915527	
5.07751	0.0521851	0.000915527	
5.07813	0.0521851	0.00106812	
5.07751	0.0521851	0.000305176	
5.07721	0.0518799	0.000762939	
5.0769	0.0527954	0.000305176	
5.07446	0.0527954	0.000762939	
5.07294	0.0531006	0.000152588	
5.07263	0.0524902	-0.000457764	
5.07324	0.0521851	-0.000152588	
5.07263	0.0518799	0.000152588	
5.07324	0.0518799	0.000152588	
5.07294	0.0524902	0.000610352	
5.07263	0.0521851	0	
5.07294	0.0524902	0.000762939	
5.07294	0.0524902	0.000610352	
5.07355	0.0524902	0.000457764	
5.07263	0.0524902	0.000152588	
5.07324	0.0521851	0.000305176	
5.07324	0.0521851	0.000610352	
5.07294	0.0515747	0.000305176	
5.07202	0.0518799	-0.000762939	
5.07233	0.0482178	0.000305176	
5.06897	0.0476074	0	
5.06744	0.0473022	0.000152588	
5.06805	0.0473022	0.000305176	
5.06775	0.0469971	0.000152588	
5.06805	0.0485229	0.000762939	
5.06805	0.0473022	0.0012207	
5.06805	0.0469971	0.0012207	
5.06805	0.0476074	0.000457764	
5.06836	0.0482178	0.000762939	
5.06836	0.0473022	0.000915527	
5.06836	0.0473022	0.000457764	
5.06866	0.0476074	0.000457764	
5.06805	0.0473022	0.000457764	
5.06805	0.0473022	0.000305176	
5.06805	0.0485229	0.000457764	
5.06866	0.0473022	0.000762939	
5.06775	0.0476074	0.000305176	
5.06714	0.0479126	0.000457764	
5.06409	0.0479126	0.00106812	
5.06287	0.0476074	0.000915527	
5.06287	0.0473022	0.000457764	
5.06287	0.0473022	0.000915527	
5.06256	0.0479126	0.000457764	
5.06317	0.0476074	0.000762939	
5.06378	0.0479126	0	
5.06348	0.0476074	-0.000305176	
5.06287	0.0473022	-0.000457764	
5.06348	0.0473022	0.000457764	
5.06287	0.0473022	-0.000152588	
5.06409	0.0476074	0.000762939	
5.06317	0.0476074	-0.000152588	
5.06378	0.0473022	0.000610352	
5.06378	0.0473022	0.000762939	
5.06317	0.0473022	0.000610352	
5.06287	0.0479126	0.000152588	
5.06226	0.0479126	0.000152588	
5.06226	0.0479126	0.000610352	
5.06226	0.0469971	0.000305176	
5.06012	0.0476074	-0.000610352	
5.05798	0.0473022	0.000152588	
5.05798	0.0476074	0	
5.05768	0.0482178	0.000152588	
5.0589	0.0473022	0.000762939	
5.05859	0.0479126	0.000305176	
5.05859	0.0476074	0.00106812	
5.05798	0.0479126	0.00137329	
5.05829	0.0476074	0.00106812	
5.05768	0.0482178	0.000457764	
5.05798	0.0476074	0.000457764	
5.05798	0.0473022	0.000305176	
5.05798	0.0476074	0.000305176	
5.05798	0.0476074	0.000305176	
5.05859	0.0473022	0.000305176	
5.05768	0.0479126	0.000305176	
5.05798	0.0479126	0.000457764	
5.05859	0.0476074	0.000305176	
5.05829	0.0473022	0.000457764	
5.05737	0.0476074	0.000762939	
5.05829	0.0476074	0.00106812	
5.05676	0.0473022	0.000915527	
5.05432	0.0469971	0.000305176	
5.05432	0.0476074	0.00106812	
5.0531	0.0476074	0.000305176	
5.0531	0.0476074	0.000457764	
5.05341	0.0473022	0	
5.05371	0.0479126	-0.000152588	
5.0528	0.0476074	-0.000152588	
5.0531	0.0473022	0.000305176	
5.0531	0.0473022	-0.000152588	
5.05341	0.0469971	0.000762939	
5.05371	0.0473022	0	
5.05249	0.0473022	0.000915527	
5.05341	0.0476074	0.000305176	
5.05341	0.0479126	0.000610352	
5.05371	0.0473022	0.000152588	
5.05371	0.0476074	0.000457764	
5.05402	0.0479126	0.000457764	
5.0528	0.0473022	-0.000152588	
5.0528	0.0469971	-0.000610352	
5.0531	0.0469971	0.000610352	
5.0528	0.0482178	0	
5.0531	0.0463867	0.000305176	
5.0531	0.0430298	0	
5.05249	0.0430298	0.000152588	
5.05005	0.0430298	0.000610352	
5.04791	0.0427246	0.00137329	
5.04791	0.0427246	0.000762939	
5.04791	0.0424194	0.000305176	
5.04822	0.043335	0.000915527	
5.04883	0.0430298	0.000762939	
5.04761	0.0421143	0.000457764	
5.04822	0.0424194	0.000457764	
5.04761	0.0430298	0.000152588	
5.04791	0.0427246	0.000305176	
5.04852	0.0424194	0.000305176	
5.04883	0.0430298	0.000305176	
5.04761	0.0421143	0.000762939	
5.04822	0.0427246	0.000610352	
5.04883	0.0427246	0.00106812	
5.04761	0.0427246	0.000762939	
5.04852	0.0424194	0.000305176	
5.04791	0.043335	0.000915527	
5.04761	0.0424194	0.000305176	
5.04883	0.0424194	0.000457764	
5.04822	0.0421143	-0.000152588	
5.04791	0.0427246	-0.000305176	
5.04822	0.0424194	-0.000152588	
5.04791	0.0430298	0.000305176	
5.04883	0.0421143	0.000152588	
5.04791	0.0430298	0.000762939	
5.04883	0.0424194	0	
5.047	0.0427246	0.000610352	
5.04456	0.0421143	0.000457764	
5.04303	0.0421143	0.000457764	
5.04242	0.0424194	0.000305176	
5.04364	0.0427246	0.000762939	
5.04333	0.0430298	0.000305176	
5.04364	0.0424194	0.000305176	
5.04333	0.0421143	-0.000305176	
5.04364	0.0424194	0.000457764	
5.04333	0.0430298	0.000305176	
5.04333	0.0421143	0.000457764	
5.04303	0.0424194	0.000610352	
5.04333	0.0424194	0.000305176	
5.04333	0.0427246	0.00106812	
5.04395	0.0430298	0.0012207	
5.04303	0.043335	0.000762939	
5.04303	0.0421143	0.000152588	
5.04333	0.0430298	0.000457764	
5.04364	0.0427246	0.000762939	
5.04303	0.0427246	0.000305176	
5.04303	0.0424194	0.000610352	
5.04303	0.0430298	0.000305176	
5.04333	0.0427246	0.000305176	
5.04333	0.0427246	0.000610352	
5.04272	0.0430298	0.000305176	
5.04395	0.0427246	0.000152588	
5.04364	0.0430298	0.000457764	
5.04303	0.043335	0.000762939	
5.04333	0.043335	0.000915527	
5.04333	0.0427246	0.000305176	
5.04364	0.0421143	0.000610352	
5.04333	0.0424194	0.000457764	
5.04364	0.0427246	0.000457764	
5.04242	0.0427246	0	
5.03937	0.0427246	-0.000152588	
5.03845	0.0427246	-0.000152588	
5.03876	0.0427246	0.000305176	
5.03845	0.0427246	0	
5.03815	0.0430298	0.000457764	
5.03845	0.0430298	0.000305176	
5.03815	0.0424194	0.000610352	
5.03815	0.0424194	0.000610352	
5.03723	0.0427246	0.000305176	
5.03845	0.0415039	0.000152588	
5.03815	0.0390625	0.000457764	
5.03845	0.0387573	0.000305176	
5.03845	0.0375366	0	
5.03815	0.0375366	-0.000305176	
5.03784	0.0375366	0.000457764	
5.03815	0.0375366	0	
5.03815	0.0378418	0.000152588	
5.03784	0.0378418	0.000305176	
5.03815	0.038147	0.000152588	
5.03845	0.0378418	0.000610352	
5.03784	0.0378418	0.000915527	
5.03815	0.0384521	0.00106812	
5.03845	0.0378418	0.000610352	
5.03815	0.0378418	0.000610352	
5.03845	0.0378418	0.000915527	
5.03815	0.0384521	0.000457764	
5.03784	0.0369263	0.000152588	
5.03815	0.0378418	0	
5.03845	0.0384521	0.000305176	
5.03754	0.0378418	0.000457764	
5.03845	0.0384521	0	
5.03845	0.0375366	0.000457764	
5.03815	0.0378418	0.000915527	
5.03815	0.0384521	0.000915527	
5.03815	0.0378418	0.000762939	
5.03815	0.0378418	0.000762939	
5.03815	0.0372314	0.000762939	
5.03784	0.0372314	0.000152588	
5.03784	0.0378418	0.000457764	
5.03479	0.0375366	0	
5.03357	0.0378418	-0.000762939	
5.03326	0.0378418	0	
5.03387	0.0378418	0.000305176	
5.03357	0.0375366	-0.000152588	
5.03418	0.0378418	0.000762939	
5.03326	0.0372314	0	
5.03357	0.0384521	0.000762939	
5.03326	0.0378418	0.000610352	
5.03357	0.038147	0.000305176	
5.03326	0.0375366	0.000152588	
5.03296	0.0375366	0.000305176	
5.03357	0.0378418	0.000305176	
5.03357	0.0369263	0.000305176	
5.03296	0.0372314	-0.00106812	
5.03357	0.0378418	0.000762939	
5.03326	0.0375366	0.000152588	
5.03357	0.0378418	0.000152588	
5.03357	0.0378418	0.000305176	
5.03357	0.0375366	0.000152588	
5.03326	0.0375366	0.000305176	
5.03296	0.038147	0.0012207	
5.03357	0.0372314	0.000762939	
5.03418	0.0375366	0.000305176	
5.03265	0.038147	0.000457764	
5.03387	0.0384521	0.000915527	
5.03296	0.0369263	0.000305176	
5.03326	0.0375366	0.000305176	
5.03357	0.0378418	0	
5.03326	0.0375366	0.000305176	
5.03326	0.038147	0.000762939	
5.03418	0.038147	0.000305176	
5.03296	0.0378418	0.000457764	
5.03357	0.0384521	0.000305176	
5.03326	0.0378418	0.000915527	
5.03326	0.0372314	0.000762939	
5.03326	0.0375366	0.000305176	
5.03357	0.0378418	0.000915527	
5.03387	0.0378418	0.000457764	
5.03296	0.0375366	0.000305176	
5.03326	0.0378418	0	
5.03296	0.0369263	-0.000610352	
5.03326	0.0378418	0	
5.03418	0.0390625	0	
5.03296	0.0372314	-0.000152588	
5.03326	0.038147	0.000457764	
5.03265	0.0375366	0.000152588	
5.03296	0.038147	0.000915527	
5.03296	0.0378418	0.000457764	
5.03357	0.0375366	0.000610352	
5.03235	0.0372314	0.000457764	
5.03021	0.038147	0.000762939	
5.02869	0.038147	0.000152588	
5.02838	0.0372314	0.000457764	
5.02838	0.0375366	-0.000305176	
5.02808	0.0378418	0.000305176	
5.0293	0.0369263	0.000305176	
5.02869	0.0378418	0.000305176	
5.02838	0.0378418	0.000152588	
5.02838	0.0375366	0.000305176	
5.02777	0.0378418	0.0012207	
5.02869	0.0378418	0.00152588	
5.02899	0.0372314	0.000762939	
5.02808	0.0338745	0.000457764	
5.02869	0.032959	0.000457764	
5.02869	0.032959	0.000610352	
5.0293	0.0326538	0.000305176	
5.02869	0.0326538	0	
5.02869	0.0326538	0.000305176	
5.02869	0.0326538	0.000762939	
5.02808	0.0320435	0.000762939	
5.02777	0.0326538	0.000457764	
5.02869	0.0332642	0.000610352	
5.02808	0.032959	0.000305176	
5.02838	0.032959	0.000915527	
5.02808	0.0332642	0.000610352	
5.02869	0.0326538	0.000305176	
5.02838	0.0332642	0.000915527	
5.02899	0.0323486	0.000610352	
5.02838	0.032959	0.000457764	
5.02808	0.0326538	0	
5.02838	0.0323486	-0.000610352	
5.02869	0.0326538	0.000305176	
5.02838	0.032959	0.000305176	
5.02869	0.032959	0.000152588	
5.02899	0.032959	0.000305176	
5.02869	0.032959	0	
5.02808	0.0326538	0.000915527	
5.02808	0.0332642	0.000610352	
5.02808	0.032959	0	
5.0293	0.0332642	0.000305176	
5.02869	0.032959	0.000762939	
5.02808	0.0326538	0.000305176	
5.02838	0.0332642	0.000152588	
5.02777	0.0332642	-0.000762939	
5.02838	0.032959	0.000610352	
5.02777	0.0323486	-0.000152588	
5.02808	0.032959	0.000457764	
5.02899	0.032959	0.000457764	
5.02899	0.0332642	0.000610352	
5.02869	0.0326538	0.000762939	
5.02808	0.032959	0.00152588	
5.02838	0.032959	0.000762939	
5.02899	0.032959	0.000457764	
5.02808	0.0326538	0.000610352	
5.02838	0.0326538	0.000915527	
5.02808	0.0323486	0.000305176	
5.02869	0.0323486	0.000762939	
5.02869	0.0335693	0.000305176	
5.02869	0.0332642	0.000610352	
5.02899	0.0323486	0.000457764	
5.02838	0.032959	0.000305176	
5.02777	0.032959	0.000457764	
5.02808	0.0326538	0.000457764	
5.02838	0.0326538	0.000762939	
5.02808	0.032959	0.000762939	
5.02808	0.0326538	0.000610352	
5.02869	0.0326538	0.000305176	
5.02838	0.032959	0.000305176	
5.02838	0.0323486	0.000457764	
5.02838	0.032959	0	
5.02808	0.032959	-0.000152588	
5.02808	0.032959	-0.000457764	
5.02808	0.032959	0.000305176	
5.02869	0.0317383	0	
5.02869	0.0326538	0.000305176	
5.02777	0.032959	-0.000152588	
5.0293	0.0326538	0.000305176	
5.02869	0.0326538	0.000457764	
5.02838	0.032959	0.000305176	
5.02808	0.0323486	0.000305176	
5.02838	0.032959	0.000305176	
5.02777	0.0320435	0.000305176	
5.02838	0.032959	0.000305176	
5.02808	0.0326538	-0.000915527	
5.02838	0.0326538	0.000305176	
5.02869	0.0320435	0	
5.02869	0.0326538	0.000305176	
5.02808	0.0320435	0.000305176	
5.02899	0.032959	0.000305176	
5.02838	0.032959	0.0012207	
5.02777	0.032959	0.0012207	
5.02869	0.032959	0.000610352	
5.02838	0.0326538	0.000762939	
5.02838	0.0320435	0.000762939	
5.02838	0.0326538	0.000762939	
5.02838	0.032959	0.000457764	
5.02838	0.0326538	0.000305176	
5.02808	0.0326538	0	
5.02838	0.032959	0.000610352	
5.02808	0.0332642	0.000457764	
5.02808	0.0326538	0.000457764	
5.02838	0.0326538	0.000610352	
5.02747	0.0323486	0.000610352	
5.02472	0.0323486	0.000915527	
5.0235	0.032959	0.000915527	
5.0235	0.0326538	0.000305176	
5.0235	0.0332642	0.000610352	
5.0235	0.0335693	0.000762939	
5.0235	0.0323486	0.000457764	
5.02319	0.032959	-0.000305176	
5.02319	0.032959	-0.000610352	
5.02319	0.0326538	-0.000152588	
5.0238	0.032959	0.000305176	
5.0235	0.0323486	-0.000305176	
5.0238	0.0326538	0.000610352	
5.02319	0.0326538	0	
5.02472	0.0326538	0.000762939	
5.02319	0.0332642	0.000610352	
5.0235	0.0326538	0.000152588	
5.0238	0.0326538	0.000457764	
5.0238	0.0326538	0.000762939	
5.02319	0.0326538	0.000610352	
5.0235	0.032959	0	
5.02319	0.032959	-0.000457764	
5.0238	0.0326538	0.000305176	
5.02319	0.0332642	0	
5.0238	0.032959	0.000152588	
5.0235	0.0326538	0.000457764	
5.02289	0.0320435	0.000152588	
5.0235	0.032959	0.0012207	
5.02319	0.0323486	0.000915527	
5.02441	0.0320435	0.00106812	
5.0235	0.0323486	0.00106812	
5.0235	0.0323486	0.000305176	
5.0238	0.0320435	0.000152588	
5.02319	0.0326538	0.000305176	
5.0238	0.0323486	0.000457764	
5.02319	0.0326538	-0.000152588	
5.0238	0.032959	0.000457764	
5.0235	0.0320435	0.000457764	
5.0238	0.0326538	0.000305176	
5.02289	0.032959	0.000305176	
5.0235	0.0341797	0.000915527	
5.0235	0.0323486	0.00106812	
5.02411	0.0323486	0.000762939	
5.02319	0.032959	0.000305176	
5.02319	0.0323486	0.000762939	
5.0238	0.0326538	0.000457764	
5.02441	0.032959	0.000915527	
5.0235	0.0326538	0	
5.0238	0.032959	-0.000152588	
5.0238	0.0326538	0	
5.02411	0.0323486	0.000305176	
5.0238	0.0332642	-0.000152588	
5.02472	0.032959	0.000305176	
5.02655	0.0326538	-0.000305176	
5.02869	0.032959	0.000762939	
5.02808	0.0335693	0.000610352	
5.0293	0.0326538	0.000457764	
5.02899	0.032959	0.000305176	
5.02808	0.032959	0.000610352	
5.02838	0.0326538	0.000305176	
5.02869	0.0326538	0.000152588	
5.02808	0.032959	-0.000457764	
5.02808	0.032959	0.000152588	
5.02808	0.0326538	0.000457764	
5.02869	0.0326538	0.000152588	
5.02838	0.0326538	0.000457764	
5.02869	0.0332642	0.000457764	
5.02777	0.032959	0.000915527	
5.02838	0.032959	0.00152588	
5.02838	0.0323486	0.000762939	
5.02808	0.032959	0.000457764	
5.02899	0.032959	0.000915527	
5.02838	0.0326538	0.000762939	
5.02838	0.0326538	0.000457764	
5.02899	0.0326538	0.000305176	
5.02899	0.0320435	0	
5.02808	0.032959	0.000610352	
5.02838	0.0326538	0.000305176	
5.02869	0.032959	0.000457764	
5.02838	0.032959	0.000457764	
5.02838	0.0332642	0.000305176	
5.02899	0.0335693	0.00106812	
5.0293	0.0326538	0.000915527	
5.02808	0.0326538	0.000305176	
5.02838	0.0326538	0.0012207	
5.02838	0.0323486	0.000762939	
5.02808	0.0326538	0.000457764	
5.02808	0.0326538	0.000305176	
5.02869	0.032959	-0.000457764	
5.02869	0.0326538	-0.000152588	
5.0293	0.032959	0.000610352	
5.02838	0.0335693	-0.000152588	
5.02899	0.0326538	0.000305176	
5.02899	0.0320435	0	
5.02869	0.032959	0.000457764	
5.02869	0.032959	0.000610352	
5.02808	0.0320435	0.000152588	
5.02808	0.0326538	0.000305176	
5.02838	0.0332642	0.000152588	
5.02838	0.0326538	0.000457764	
5.02838	0.0326538	0.000152588	
5.02808	0.0323486	-0.000610352	
5.02899	0.0335693	0.000305176	
5.02838	0.032959	0.000305176	
5.02869	0.0326538	-0.000152588	
5.02899	0.032959	0.000152588	
5.02869	0.0323486	0.000305176	
5.02838	0.032959	0.000610352	
5.0293	0.032959	0.0012207	
5.02869	0.0326538	0.000915527	
5.02899	0.032959	0.000152588	
5.02838	0.0323486	0.000457764	
5.02838	0.032959	0.000610352	
5.0293	0.032959	0.000610352	
5.02808	0.0326538	0.000152588	
5.0293	0.0326538	0.000457764	
5.02838	0.032959	0.000610352	
5.02838	0.032959	0.000305176	
5.0293	0.0326538	0.000305176	
5.02869	0.0332642	0.000762939	
5.02869	0.0332642	0.000610352	
5.02838	0.032959	0.000915527	
5.02869	0.0332642	0.000915527	
5.02838	0.0323486	0.000305176	
5.02838	0.0326538	0.00106812	
5.02869	0.0326538	0.000457764	
5.02777	0.032959	0.000457764	
5.02838	0.0326538	-0.000152588	
5.02808	0.032959	-0.000305176	
5.02808	0.0320435	0	
5.02869	0.032959	0.000610352	
5.02869	0.032959	-0.000305176	
5.02838	0.032959	0.000152588	
5.02808	0.0326538	0	
5.02838	0.0332642	0.000762939	
5.02869	0.0320435	0.000305176	
5.02869	0.032959	0.000305176	
5.02838	0.032959	0.000457764	
5.0293	0.032959	0.000457764	
5.0293	0.032959	0.000305176	
5.03204	0.032959	0.000305176	
5.03296	0.0323486	-0.000610352	
5.03387	0.0326538	0.000152588	
5.03357	0.0320435	0	
5.03357	0.032959	0.000457764	
5.03357	0.0326538	0.000152588	
5.03357	0.0332642	0	
5.03387	0.032959	0.00106812	
5.03326	0.0326538	0.0012207	
5.03326	0.0326538	0.000915527	
5.03296	0.0323486	0.000457764	
5.03357	0.0323486	0.000915527	
5.03326	0.0326538	0.000610352	
5.03418	0.0323486	0	
5.03326	0.032959	0.000305176	
5.03357	0.032959	0.000457764	
5.03418	0.0326538	0.000610352	
5.03357	0.032959	0.000305176	
5.03357	0.0326538	0.000457764	
5.03296	0.0323486	0.000305176	
5.03357	0.0332642	0.000610352	
5.03296	0.0332642	0.000762939	
5.03296	0.0323486	0.000915527	
5.03326	0.0326538	0.000457764	
5.03326	0.0326538	0.000915527	
5.03326	0.0326538	0.000457764	
5.03326	0.032959	0.000457764	
5.03326	0.0326538	-0.000152588	
5.03296	0.0326538	-0.000152588	
5.03326	0.0326538	0	
5.03326	0.0323486	0.000305176	
5.03326	0.032959	-0.000152588	
5.03357	0.032959	0.000305176	
5.03326	0.0326538	0	
5.03448	0.0326538	0.000915527	
5.03662	0.0323486	0.000610352	
5.03815	0.0326538	0.000457764	
5.03784	0.0326538	0.000305176	
5.03845	0.0326538	0.000457764	
5.03754	0.0332642	0.000152588	
5.03845	0.0326538	0.000152588	
5.03845	0.032959	-0.000457764	
5.03815	0.032959	0	
5.03815	0.032959	0	
5.03845	0.0326538	0.000152588	
5.03937	0.0326538	0	
5.03906	0.0326538	0.000305176	
5.03815	0.0332642	0.00106812	
5.03845	0.0323486	0.00137329	
5.03845	0.0326538	0.00106812	
5.03784	0.0323486	0.000457764	
5.03876	0.0332642	0.000762939	
5.03845	0.0332642	0.000762939	
5.03876	0.0332642	0.000305176	
5.03754	0.0323486	0.000610352	
5.03815	0.0323486	0.000457764	
5.03815	0.032959	0.000610352	
5.03815	0.0326538	0.000457764	
5.03845	0.032959	0.000305176	
5.03815	0.032959	0.000305176	
5.03937	0.0326538	0.000610352	
5.04211	0.0332642	0.00106812	
5.04303	0.032959	0.000915527	
5.04303	0.0326538	0.000305176	
5.04333	0.0326538	0.000915527	
5.04364	0.0323486	0.000457764	
5.04364	0.0314331	0.000762939	
5.04303	0.0292969	0	
5.04333	0.027771	-0.000762939	
5.04303	0.0274658	-0.000152588	
5.04333	0.027771	0.000305176	
5.04303	0.0280762	-0.000152588	
5.04333	0.0280762	0.000305176	
5.04272	0.0274658	0	
5.04364	0.0283813	0.000915527	
5.04333	0.0280762	0.000610352	
5.04333	0.0283813	0.000152588	
5.04333	0.027771	0.000457764	
5.04242	0.0274658	0.000610352	
5.04303	0.0280762	0.000457764	
5.04395	0.027771	0.000152588	
5.04639	0.0274658	-0.000762939	
5.04761	0.027771	0.000305176	
5.04791	0.0280762	0.000152588	
5.04852	0.0286865	0.000610352	
5.04852	0.0274658	0.000457764	
5.04822	0.027771	0.000152588	
5.04883	0.027771	0.00106812	
5.04883	0.0280762	0.00183105	
5.04822	0.0280762	0.000762939	
5.04761	0.027771	0.000457764	
5.04852	0.0274658	0.000305176	
5.04913	0.027771	0.000915527	
5.04852	0.0274658	0.000305176	
5.04791	0.0274658	0.000152588	
5.04852	0.027771	0.000305176	
5.04791	0.027771	0.000610352	
5.04913	0.0274658	0.000457764	
5.05157	0.027771	0.000305176	
5.0531	0.0274658	0.000457764	
5.05249	0.027771	0.000457764	
5.05249	0.0280762	0.000762939	
5.0531	0.0283813	0.000915527	
5.05341	0.0274658	0.000305176	
5.0528	0.027771	0.000762939	
5.0528	0.027771	0.000610352	
5.05249	0.0280762	0.000457764	
5.05341	0.027771	-0.000152588	
5.05249	0.0286865	-0.00106812	
5.0528	0.0280762	0.000457764	
5.05371	0.027771	0.000305176	
5.0531	0.0274658	0	
5.05371	0.027771	0.000457764	
5.05371	0.027771	0	
5.05737	0.027771	0.000457764	
5.05829	0.0283813	0.000762939	
5.05829	0.027771	0.000305176	
5.05829	0.027771	0.000305176	
5.05859	0.0274658	0.000152588	
5.05768	0.0280762	0.000152588	
5.05798	0.0280762	-0.000152588	
5.05798	0.0271606	-0.000457764	
5.05768	0.0274658	0	
5.05768	0.027771	0	
5.05859	0.0274658	0.000457764	
5.05768	0.027771	0.000610352	
5.05707	0.027771	0.000152588	
5.05859	0.0274658	0.00106812	
5.0589	0.0274658	0.00152588	
5.06195	0.0280762	0.000762939	
5.06287	0.0280762	0.000305176	
5.06378	0.0274658	0.000610352	
5.06287	0.0280762	0.00106812	
5.06348	0.0283813	0.000610352	
5.06317	0.0280762	0.000305176	
5.06287	0.0283813	0.000152588	
5.06287	0.0280762	0.000762939	
5.06256	0.027771	0.000457764	
5.06378	0.0280762	0.000152588	
5.06287	0.027771	0.000305176	
5.06256	0.0283813	0.000762939	
5.06378	0.0283813	0.000762939	
5.06683	0.027771	0.000762939	
5.06805	0.0280762	0.000305176	
5.06805	0.0283813	0.000457764	
5.06775	0.0274658	0.000457764	
5.06775	0.0280762	0.000305176	
5.06836	0.0280762	0.000152588	
5.06897	0.0271606	-0.000610352	
5.06836	0.027771	0	
5.06805	0.027771	0.000305176	
5.06775	0.027771	0	
5.06836	0.0280762	0.000152588	
5.06775	0.0280762	0	
5.06836	0.0274658	0.000762939	
5.07141	0.0280762	0.000610352	
5.07263	0.0274658	0.000305176	
5.07233	0.0280762	0.000610352	
5.07202	0.0271606	0.000305176	
5.07324	0.027771	0.000457764	
5.07294	0.0286865	0	
5.07324	0.027771	-0.000457764	
5.07324	0.0274658	0.000152588	
5.07263	0.027771	0	
5.07294	0.027771	0.000762939	
5.07294	0.0280762	0.000305176	
5.07324	0.027771	0.000457764	
5.07629	0.027771	0.000762939	
5.07813	0.0280762	0.00152588	
5.07751	0.0274658	0.000457764	
5.07751	0.0280762	0.000610352	
5.07751	0.0280762	0.000610352	
5.07813	0.027771	0.000457764	
5.07751	0.027771	0.000610352	
5.07843	0.027771	0.000457764	
5.07721	0.0280762	0.000457764	
5.07782	0.0280762	0.000762939	
5.07813	0.0274658	0.000305176	
5.08057	0.0280762	0.000152588	
5.08179	0.027771	0.000457764	
5.08179	0.0280762	0.000610352	
5.0827	0.027771	0.000762939	
5.08179	0.027771	0.000915527	
5.08148	0.027771	0.000457764	
5.08179	0.027771	0.000762939	
5.08209	0.0271606	0.000610352	
5.08209	0.0244141	0.000457764	
5.0824	0.0231934	-0.000152588	
5.08301	0.0231934	-0.000457764	
5.08545	0.0228882	0.000152588	
5.08667	0.0231934	0.000152588	
5.08667	0.0231934	0.000152588	
5.08667	0.0234985	0.000457764	
5.08728	0.0231934	-0.000152588	
5.08698	0.0231934	0.000915527	
5.08728	0.0234985	0.000457764	
5.08728	0.0231934	0.000305176	
5.08759	0.0231934	0.000457764	
5.08759	0.0231934	0.000610352	
5.09064	0.022583	0.000152588	
5.09125	0.0234985	0.000457764	
5.09125	0.0228882	-0.000152588	
5.09186	0.0231934	0.000762939	
5.09186	0.022583	-0.000152588	
5.09216	0.0231934	0.000762939	
5.09186	0.0234985	0.000152588	
5.09186	0.0231934	0.000457764	
5.09216	0.0228882	0.000915527	
5.09308	0.0234985	0.00198364	
5.09521	0.0231934	0.000762939	
5.09674	0.0228882	0.000610352	
5.09674	0.0234985	0.000762939	
5.09644	0.0231934	0.000915527	
5.09735	0.0234985	0.000762939	
5.09705	0.0238037	0.000305176	
5.09674	0.0228882	0.000152588	
5.09674	0.022583	0.000610352	
5.09705	0.0231934	0.000305176	
5.1004	0.022583	0.000305176	
5.10193	0.0231934	0.000762939	
5.10193	0.0231934	0.000610352	
5.10223	0.0228882	0.000762939	
5.10193	0.0234985	0.000610352	
5.10193	0.0228882	0.000457764	
5.10162	0.0231934	0.0012207	
5.10132	0.0231934	0.000457764	
5.10315	0.0228882	0.000762939	
5.10529	0.0228882	0	
5.1062	0.0231934	-0.00106812	
5.10742	0.0231934	0	
5.10742	0.0234985	0.000610352	
5.1062	0.022583	0	
5.1059	0.0231934	0.000305176	
5.10681	0.022583	0	
5.10681	0.0231934	0.000762939	
5.10773	0.0228882	0.00106812	
5.11017	0.0228882	0.000305176	
5.11169	0.0238037	0.000762939	
5.11169	0.0228882	0.000457764	
5.11169	0.0228882	0.000305176	
5.11139	0.0231934	0	
5.11169	0.022583	-0.000305176	
5.11169	0.0222778	0.000305176	
5.11169	0.0228882	0	
5.1123	0.0234985	0.000152588	
5.11536	0.0228882	0.000305176	
5.11597	0.022583	0.000762939	
5.11749	0.0228882	0.000915527	
5.11688	0.0231934	0.00167847	
5.11688	0.0234985	0.000762939	
5.11688	0.0238037	0.000152588	
5.11658	0.0228882	0.000457764	
5.11749	0.022583	0.00106812	
5.12024	0.0228882	0.000457764	
5.12115	0.0231934	0.000610352	
5.12238	0.0228882	0	
5.12207	0.0238037	0.000762939	
5.12115	0.0231934	0.000152588	
5.12177	0.022583	0.000457764	
5.12238	0.0228882	0.000457764	
5.12268	0.022583	0.00106812	
5.12512	0.0231934	0.000762939	
5.12665	0.0222778	0.000610352	
5.12604	0.0222778	-0.000152588	
5.12787	0.0231934	0.000762939	
5.12695	0.0231934	0.000610352	
5.12604	0.0231934	0.000457764	
5.12604	0.022583	0	
5.12726	0.0234985	-0.000305176	
5.13062	0.0228882	0	
5.13123	0.0228882	0.000610352	
5.13092	0.0234985	0.000152588	
5.13184	0.0231934	0.000457764	
5.13214	0.0231934	0.000152588	
5.13123	0.0231934	0.000610352	
5.13123	0.0228882	0.000457764	
5.13245	0.0228882	0.000305176	
5.13519	0.0231934	0.000457764	
5.13641	0.0234985	0.000152588	
5.13611	0.0228882	0.000152588	
5.13702	0.0231934	0.000152588	
5.13611	0.0228882	-0.000610352	
5.13702	0.0228882	0.000305176	
5.13763	0.0234985	0.000152588	
5.14038	0.0228882	0.000457764	
5.14069	0.022583	0.000305176	
5.1416	0.0228882	0.000457764	
5.14191	0.0234985	0.000762939	
5.1416	0.0228882	0.00137329	
5.14191	0.0231934	0.000915527	
5.14191	0.0234985	0.000457764	
5.1413	0.0231934	0.000305176	
5.14435	0.022583	0.000915527	
5.14648	0.022583	0.000305176	
5.14679	0.0228882	0	
5.14709	0.0231934	0.000457764	
5.14618	0.0231934	0.000610352	
5.14648	0.0231934	0	
5.1474	0.0228882	0.000610352	
5.14984	0.0231934	0.000457764	
5.15228	0.0244141	0.0012207	
5.15137	0.0238037	0.000610352	
5.15137	0.022583	0.000915527	
5.15137	0.0231934	0.000305176	
5.15106	0.0228882	0.00106812	
5.15198	0.0234985	0.000457764	
5.15533	0.0231934	0.000610352	
5.15594	0.0231934	-0.000305176	
5.15625	0.0231934	-0.000305176	
5.15656	0.022583	0	
5.15656	0.0228882	0.000610352	
5.15594	0.0231934	0	
5.15686	0.0228882	0.000152588	
