model_ppg1.acq
0.5 msec/sample
3 channels
RSP, X, RSPEC-R
Volts
PPG, X, PPGED-R
Volts
ECG, Y, RSPEC-R
mV
CH1	CH2	CH13	
249687	249687	249687	
5.85175	0.288696	0.000152588	
5.85144	0.28717	0.000610352	
5.85205	0.287476	0.000305176	
5.8548	0.286255	0.000915527	
5.85602	0.283813	0.00106812	
5.85632	0.282593	0.000305176	
5.85632	0.281067	0.000457764	
5.85632	0.27832	0.000457764	
5.85632	0.276794	0.000305176	
5.85663	0.276489	0.000762939	
5.85632	0.273743	-0.000305176	
5.85571	0.272217	-0.000305176	
5.85602	0.271301	0	
5.85663	0.26825	0.000762939	
5.85602	0.267944	0.000152588	
5.85663	0.266418	0.000762939	
5.85663	0.264587	0.000305176	
5.85663	0.263062	0.000457764	
5.85754	0.262451	0.000457764	
5.85999	0.261841	0.000610352	
5.8609	0.259094	0.000305176	
5.8609	0.257568	0.000915527	
5.8606	0.256958	0.000305176	
5.86121	0.254517	0.000152588	
5.86121	0.253906	-0.000152588	
5.86151	0.250854	0.000152588	
5.86151	0.249329	0.000305176	
5.86151	0.247803	0.000152588	
5.86151	0.246887	0.000152588	
5.86151	0.244141	0.000457764	
5.8609	0.24231	0.000457764	
5.86151	0.242004	0.00152588	
5.8606	0.239258	0.000915527	
5.86121	0.238647	0.000152588	
5.86151	0.236816	0.000762939	
5.86182	0.234985	0.000762939	
5.86487	0.232849	0.000305176	
5.86578	0.233765	0.000305176	
5.86639	0.232239	-0.000152588	
5.8667	0.229492	0.000457764	
5.86639	0.228577	0	
5.8667	0.228271	0.000457764	
5.86609	0.224609	0.000610352	
5.86639	0.223999	0.000762939	
5.86639	0.222778	0.000610352	
5.86609	0.220032	0.000457764	
5.8667	0.218506	0.000457764	
5.86639	0.217896	0.000915527	
5.86639	0.214233	0.000152588	
5.86578	0.213623	0.000457764	
5.86639	0.212097	0	
5.8667	0.209656	0	
5.86975	0.209045	0	
5.87097	0.20874	0.000762939	
5.87067	0.20813	0.000457764	
5.87097	0.204163	0.000457764	
5.87036	0.203857	0.000305176	
5.87036	0.202942	0.000610352	
5.87158	0.200195	0.000457764	
5.87158	0.198669	0.000915527	
5.87158	0.198364	0.000305176	
5.87128	0.195313	0.000762939	
5.87097	0.193787	0.000457764	
5.87128	0.192566	0	
5.87097	0.19043	-0.000305176	
5.87067	0.188904	0.000152588	
5.87158	0.188293	0.000152588	
5.87067	0.184937	0.000152588	
5.87067	0.184326	0	
5.87128	0.184326	0.000457764	
5.87463	0.183105	0.000762939	
5.87585	0.180969	0.00137329	
5.87616	0.179138	0.000610352	
5.87585	0.178223	0.000152588	
5.87646	0.175781	0.000915527	
5.87646	0.174866	0.000152588	
5.87677	0.173645	0.000610352	
5.87677	0.171204	0.000152588	
5.87524	0.169067	0	
5.87646	0.169067	0.000305176	
5.87646	0.168152	0.000152588	
5.87555	0.1651	0	
5.87646	0.164185	0.000610352	
5.87616	0.163269	0.000610352	
5.87555	0.161133	0.000915527	
5.87616	0.159607	0.000457764	
5.87616	0.159302	0.000457764	
5.88013	0.158386	0.000457764	
5.88104	0.15564	0.000152588	
5.88165	0.155029	0.000762939	
5.88104	0.154114	-0.000305176	
5.88104	0.151367	0	
5.88074	0.149841	0.000457764	
5.88135	0.148926	0.000457764	
5.88135	0.146484	0	
5.88043	0.144653	0.000305176	
5.88104	0.144653	0.000305176	
5.88104	0.144043	0.000762939	
5.88135	0.140686	0.000610352	
5.88074	0.139771	0.000762939	
5.88043	0.140686	0.000152588	
5.88104	0.139465	0.000915527	
5.88104	0.136414	0.000457764	
5.88104	0.134888	0.000305176	
5.88135	0.134583	0	
5.88501	0.132141	0.000610352	
5.88593	0.130005	0.000152588	
5.88531	0.13092	0.000305176	
5.88623	0.129395	0.000152588	
5.88562	0.126648	0.000305176	
5.88562	0.126038	0.00106812	
5.88562	0.124817	0.00106812	
5.88562	0.124207	0.000915527	
5.88593	0.121765	0	
5.88623	0.12085	0.000610352	
5.88623	0.12085	0.000457764	
5.88623	0.119324	0.000610352	
5.88593	0.116577	0.000152588	
5.88623	0.115662	-0.000305176	
5.88623	0.115967	0.000457764	
5.88531	0.114136	0.000305176	
5.88562	0.111694	0.000457764	
5.88562	0.111084	0.000915527	
5.88715	0.111084	0.000610352	
5.8902	0.109863	0.00106812	
5.89081	0.107422	0.000457764	
5.8905	0.106201	0.000457764	
5.89111	0.106201	0.000762939	
5.89142	0.104675	0	
5.89111	0.101624	0.000457764	
5.89081	0.100708	-0.000305176	
5.8905	0.101013	-0.000305176	
5.8905	0.100098	0.000305176	
5.89111	0.0976563	0.000457764	
5.89081	0.0961304	0.000305176	
5.89081	0.0967407	0.000457764	
5.89142	0.0952148	0	
5.89081	0.0921631	0.000762939	
5.89111	0.0909424	0.000610352	
5.89081	0.0906372	0.000610352	
5.8905	0.0912476	0.000457764	
5.89111	0.0900269	0.00106812	
5.89172	0.0878906	0.000305176	
5.89417	0.0860596	-0.000152588	
5.89508	0.0869751	-0.000305176	
5.89508	0.0863647	0.000305176	
5.8963	0.0823975	0.000305176	
5.896	0.0814819	0	
5.89539	0.0814819	0	
5.8963	0.0811768	0.000305176	
5.896	0.0802612	0.000762939	
5.89539	0.0784302	0.0012207	
5.896	0.0769043	0.000152588	
5.896	0.0772095	0.000152588	
5.89539	0.0775146	0.000762939	
5.89661	0.0762939	0.000305176	
5.8963	0.0741577	0.000457764	
5.896	0.0726318	-0.000152588	
5.89661	0.0717163	-0.000152588	
5.896	0.0708008	0.000457764	
5.896	0.0680542	0	
5.89661	0.0668335	0.000305176	
5.89844	0.0674438	0.00106812	
5.90027	0.0674438	0.000305176	
5.90088	0.067749	0.00106812	
5.90118	0.0665283	0.000457764	
5.90088	0.0634766	0.000457764	
5.90179	0.062561	0.00106812	
5.89996	0.0622559	0.000610352	
5.90088	0.0619507	0.000457764	
5.90118	0.0613403	-0.000152588	
5.90057	0.0585938	-0.000152588	
5.90057	0.0576782	0.000457764	
5.90118	0.0570679	0.000457764	
5.90057	0.057373	0.000305176	
5.90088	0.0564575	0.000305176	
5.90057	0.0540161	0.000457764	
5.90088	0.0518799	0.000915527	
5.90088	0.0524902	0.000610352	
5.90057	0.0527954	0.000610352	
5.90057	0.0521851	0.000305176	
5.90118	0.0518799	0.000457764	
5.90485	0.0491333	0.000457764	
5.90576	0.0479126	-0.000152588	
5.90576	0.0473022	-0.000152588	
5.90576	0.0479126	0.000305176	
5.90546	0.0473022	0.000305176	
5.90546	0.0463867	0.000457764	
5.90546	0.0436401	0.000305176	
5.90576	0.043335	0.000610352	
5.90576	0.0427246	0.00106812	
5.90515	0.0427246	0.00167847	
5.90546	0.0427246	0.000305176	
5.90607	0.0421143	0.000610352	
5.90546	0.0384521	0.000457764	
5.90607	0.0378418	0.000457764	
5.90546	0.0375366	0.000152588	
5.90637	0.0375366	-0.000305176	
5.90607	0.0378418	0.000457764	
5.90607	0.0378418	0.000762939	
5.90576	0.0363159	0.000305176	
5.90637	0.0338745	0.000457764	
5.90668	0.0326538	0.000457764	
5.90912	0.0323486	0.000457764	
5.91034	0.0332642	0.00106812	
5.91064	0.0332642	0.000457764	
5.91064	0.0326538	0	
5.91064	0.0323486	0.000762939	
5.91095	0.0283813	0.000152588	
5.91095	0.027771	0.000762939	
5.91064	0.0280762	-0.000305176	
5.91064	0.027771	-0.000305176	
5.91095	0.027771	0.000152588	
5.91064	0.0280762	0.000610352	
5.91125	0.027771	0.000305176	
5.91095	0.0265503	0.000457764	
5.91095	0.0241089	0.000305176	
5.91064	0.0228882	0.000915527	
5.91095	0.0228882	0.000610352	
5.91125	0.0234985	0.000610352	
5.91064	0.0234985	0	
5.91003	0.0228882	0.000762939	
5.91095	0.0231934	0.000610352	
5.91095	0.0222778	0.000305176	
5.91125	0.0195313	-0.000152588	
5.914	0.0183105	0.000152588	
5.91522	0.0180054	0.000457764	
5.91614	0.0180054	0	
5.91553	0.0180054	-0.000152588	
5.91614	0.0183105	0.000610352	
5.91553	0.0186157	0.000457764	
5.91614	0.0189209	0.0012207	
5.91553	0.0186157	0.000762939	
5.91553	0.0170898	0.000305176	
5.91553	0.0146484	0.000610352	
5.91553	0.0125122	0.000457764	
5.91583	0.0128174	0.000610352	
5.91522	0.0128174	0.000305176	
5.91583	0.0131226	-0.000152588	
5.91583	0.0134277	0.000457764	
5.91522	0.0137329	-0.000152588	
5.91553	0.0131226	0.000457764	
5.91553	0.0137329	0.000610352	
5.91553	0.012207	0.000305176	
5.91583	0.00946045	0.0012207	
5.91522	0.00823975	0.000457764	
5.91583	0.00762939	0.000457764	
5.9198	0.00823975	0.000762939	
5.9201	0.00793457	0.000305176	
5.92041	0.0088501	0.000762939	
5.92041	0.0088501	-0.000457764	
5.92041	0.00762939	-0.000305176	
5.92133	0.00793457	0.000305176	
5.92163	0.00854492	0.000152588	
5.92072	0.00762939	-0.000152588	
5.92102	0.00701904	0.000305176	
5.92072	0.00488281	0	
5.92041	0.00366211	0.000915527	
5.92072	0.00335693	0.000762939	
5.92133	0.00274658	0.000457764	
5.92072	0.00305176	0.000457764	
5.92041	0.00335693	0.000610352	
5.92041	0.00366211	0.000457764	
5.92072	0.00335693	0.000305176	
5.9198	0.00274658	0	
5.92102	0.00305176	0	
5.92041	0.00335693	0.000457764	
5.9201	0.00366211	0.000457764	
5.92102	0.00366211	0	
5.92102	0.00244141	0.000610352	
5.92438	0	0.000915527	
5.92499	-0.0012207	0.00167847	
5.92529	-0.000915527	0.000457764	
5.9256	-0.000915527	0.000457764	
5.9256	-0.000915527	0.000610352	
5.9256	-0.00213623	0.000152588	
5.9256	-0.000915527	0.000457764	
5.9256	-0.00183105	-0.000305176	
5.92529	-0.00152588	-0.000152588	
5.92651	-0.000915527	0.000305176	
5.9256	-0.00152588	0	
5.9256	-0.000915527	0.000152588	
5.92529	-0.0012207	0.000305176	
5.9256	-0.0012207	0.000762939	
5.92529	-0.00213623	0.00106812	
5.92529	-0.00183105	0.000457764	
5.92468	-0.000915527	0.000305176	
5.9259	-0.00244141	0.000762939	
5.92529	-0.00518799	0	
5.9256	-0.00549316	0.000915527	
5.9259	-0.00640869	-0.000762939	
5.92499	-0.00610352	-0.000305176	
5.9256	-0.00579834	0.000457764	
5.9256	-0.00610352	0.000457764	
5.92651	-0.00640869	-0.000152588	
5.92865	-0.00610352	0.000305176	
5.93048	-0.00579834	0.000305176	
5.93079	-0.00640869	0.000762939	
5.93109	-0.00671387	0.000457764	
5.93109	-0.00610352	0.000152588	
5.93018	-0.00610352	0.000610352	
5.93018	-0.00640869	0.000762939	
5.92987	-0.00671387	0.000610352	
5.93079	-0.00610352	0.000305176	
5.93079	-0.00640869	-0.000305176	
5.93079	-0.00610352	0.000305176	
5.93048	-0.00640869	0.000152588	
5.93018	-0.00640869	0.000152588	
5.93048	-0.00640869	0	
5.9314	-0.00579834	0.000152588	
5.93048	-0.00640869	0.00106812	
5.93018	-0.00518799	0.0012207	
5.93048	-0.00762939	0.000610352	
5.93048	-0.00976563	0.000152588	
5.93048	-0.0119019	0.000610352	
5.93079	-0.0115967	0.000457764	
5.93079	-0.0106812	0.000610352	
5.92957	-0.0109863	0	
5.93048	-0.0115967	-0.000152588	
5.93018	-0.0109863	0.000457764	
5.93109	-0.0109863	0	
5.93414	-0.0115967	0.000457764	
5.93506	-0.0109863	0.000457764	
5.93536	-0.0112915	0.000915527	
5.93506	-0.0109863	0.000610352	
5.93536	-0.0109863	0.000610352	
5.93567	-0.0112915	0.000610352	
5.93567	-0.0106812	0.000915527	
5.93475	-0.0115967	0	
5.93536	-0.0115967	0.000762939	
5.93536	-0.0109863	-0.000457764	
5.93536	-0.0109863	0	
5.93567	-0.0119019	0	
5.93536	-0.010376	0.000457764	
5.93506	-0.0112915	0	
5.93567	-0.0109863	0.000457764	
5.93536	-0.0115967	0.000305176	
5.93475	-0.0106812	0.000915527	
5.93567	-0.0112915	0.000610352	
5.93536	-0.0109863	0.000457764	
5.93536	-0.0109863	0.000610352	
5.93567	-0.0109863	0.000762939	
5.93506	-0.0106812	0.000152588	
5.93567	-0.0112915	0	
5.93475	-0.0112915	0	
5.93597	-0.0109863	0.000457764	
5.93597	-0.0109863	0.000152588	
5.93628	-0.0106812	0	
5.93903	-0.0112915	0.000152588	
5.93994	-0.0112915	0.000457764	
5.94086	-0.0109863	0.000915527	
5.94086	-0.0109863	0.00152588	
5.93964	-0.0109863	0.00106812	
5.94055	-0.0109863	0.000152588	
5.94055	-0.0112915	0.000915527	
5.93994	-0.0112915	0.000457764	
5.94086	-0.0112915	0.000305176	
5.93994	-0.0109863	0	
5.94055	-0.0112915	0	
5.93964	-0.0106812	0.000762939	
5.94025	-0.0112915	0.000152588	
5.94025	-0.0112915	0.000457764	
5.93994	-0.0109863	0.000610352	
5.94025	-0.0106812	0.000915527	
5.94055	-0.0109863	0.000610352	
5.94055	-0.010376	0.000457764	
5.93994	-0.0109863	0.000457764	
5.94025	-0.010376	0.000610352	
5.94086	-0.0106812	0.000457764	
5.94055	-0.0106812	0.000915527	
5.93964	-0.0109863	-0.000457764	
5.94025	-0.0112915	-0.000305176	
5.93994	-0.0109863	0.000305176	
5.93994	-0.010376	0.000610352	
5.94055	-0.0109863	0	
5.94055	-0.0106812	0.000152588	
5.94116	-0.0109863	0.000457764	
5.9436	-0.0109863	0.000915527	
5.94452	-0.00946045	0.000610352	
5.94482	-0.00793457	0.000762939	
5.94574	-0.00671387	0.000610352	
5.94604	-0.00579834	0.000457764	
5.94513	-0.00579834	0.000457764	
5.94543	-0.00671387	0	
5.94543	-0.00640869	0	
5.94574	-0.00579834	0.000457764	
5.94574	-0.00579834	0.000762939	
5.94543	-0.00640869	0	
5.94513	-0.00579834	-0.000457764	
5.94543	-0.00640869	0.000305176	
5.94513	-0.00610352	0.000915527	
5.94482	-0.00549316	0.00137329	
5.94482	-0.00640869	0.000610352	
5.94543	-0.00671387	0.000305176	
5.94513	-0.00579834	0.00106812	
5.94513	-0.00610352	0.000152588	
5.94513	-0.00610352	0.000457764	
5.94574	-0.00640869	0.000305176	
5.94482	-0.00640869	0	
5.94482	-0.00640869	0.000457764	
5.94482	-0.00671387	0	
5.94482	-0.00610352	0.000305176	
5.94482	-0.00610352	0.000152588	
5.94543	-0.00640869	0.000762939	
5.94482	-0.00610352	0.000610352	
5.94513	-0.00701904	0.000457764	
5.94482	-0.00640869	0.000610352	
5.94574	-0.00488281	0.000762939	
5.94849	-0.00274658	0.000152588	
5.94971	-0.000915527	0.000610352	
5.95001	-0.00183105	-0.000305176	
5.94971	-0.0012207	-0.000305176	
5.95032	-0.0012207	0.000305176	
5.95032	-0.000915527	0.000762939	
5.95032	-0.0012207	0	
5.95032	-0.000610352	0	
5.95032	-0.00152588	0.000305176	
5.95093	-0.00183105	0.000610352	
5.95032	-0.00183105	0.000305176	
5.94971	-0.00152588	0.000305176	
5.95001	-0.0012207	0.000457764	
5.95032	-0.0012207	0.0012207	
5.95032	-0.000915527	0.000305176	
5.94971	-0.00152588	0.000305176	
5.95032	-0.0012207	0	
5.95032	-0.00152588	0.000152588	
5.95001	-0.000915527	0.000457764	
5.95032	-0.000915527	0.000457764	
5.95032	-0.0012207	0.000305176	
5.95062	-0.000915527	0.000457764	
5.95032	0.00244141	0.00106812	
5.95062	0.00305176	0.00137329	
5.94971	0.00305176	0.000762939	
5.95032	0.00366211	0.000152588	
5.95062	0.00335693	0.000457764	
5.95001	0.00366211	0.000610352	
5.95123	0.00244141	0.000610352	
5.95032	0.00274658	0.000152588	
5.94971	0.00335693	-0.000152588	
5.95032	0.00305176	0.000610352	
5.94971	0.00335693	0	
5.95093	0.00366211	0	
5.95459	0.00335693	0.000457764	
5.9552	0.00366211	0.000762939	
5.9549	0.00366211	0.000457764	
5.9552	0.00366211	0.000305176	
5.9549	0.00335693	0.000457764	
5.9549	0.00396729	0.000610352	
5.95459	0.00488281	0.000762939	
5.95428	0.00701904	0.000610352	
5.9552	0.00854492	-0.000305176	
5.9552	0.00823975	-0.000152588	
5.9552	0.0088501	0	
5.95459	0.00854492	0.000457764	
5.9549	0.00854492	0.000152588	
5.95551	0.00823975	0.000457764	
5.95459	0.00823975	0.000305176	
5.95459	0.00793457	0.000762939	
5.9549	0.00823975	0.000610352	
5.9549	0.00823975	0.000305176	
5.9552	0.00854492	0.000305176	
5.95459	0.00854492	0.000915527	
5.9549	0.0088501	0.000305176	
5.95551	0.00793457	0.000152588	
5.9552	0.00793457	0	
5.9552	0.00823975	0	
5.9549	0.00762939	0.000152588	
5.95551	0.0088501	0.000305176	
5.9552	0.0119019	0	
5.9552	0.0131226	0.000610352	
5.9549	0.0134277	0.000915527	
5.9549	0.0131226	0.0012207	
5.9552	0.0137329	0.000305176	
5.9552	0.0134277	0.000152588	
5.9552	0.0134277	0.000762939	
5.95551	0.0134277	0.000610352	
5.95459	0.0128174	0.000305176	
5.95612	0.0134277	-0.000152588	
5.95856	0.0131226	-0.000152588	
5.95978	0.0134277	0.000762939	
5.95978	0.0134277	-0.000152588	
5.96039	0.0131226	0.000152588	
5.95978	0.0131226	0.000457764	
5.96008	0.0137329	0.000915527	
5.96039	0.0131226	0.000457764	
5.95978	0.0143433	0.000610352	
5.96039	0.0167847	0.000610352	
5.96069	0.0183105	0.000762939	
5.96008	0.0177002	0.000305176	
5.96039	0.0183105	0.000610352	
5.96039	0.0183105	-0.000457764	
5.95978	0.0183105	-0.000305176	
5.95947	0.0183105	0.000457764	
5.96039	0.0183105	0.000152588	
5.95978	0.0183105	0	
5.96008	0.0180054	0	
5.96008	0.0183105	0.000457764	
5.96039	0.0180054	0.000457764	
5.96069	0.0177002	0.000610352	
5.96008	0.0183105	0.000610352	
5.96039	0.0180054	0.000305176	
5.96008	0.0186157	0.00106812	
5.96039	0.0183105	0.000305176	
5.96008	0.0186157	0.000305176	
5.96008	0.0192261	0.000152588	
5.961	0.0213623	0.000305176	
5.95947	0.0234985	0.000152588	
5.96008	0.0234985	0.000152588	
5.96008	0.0231934	0	
5.95978	0.0228882	0.000457764	
5.95978	0.0231934	0.00106812	
5.95978	0.0231934	0.00152588	
5.96039	0.0228882	0.000610352	
5.96008	0.0231934	0.000305176	
5.95947	0.0231934	0.000762939	
5.96008	0.0231934	0.000457764	
5.96008	0.0228882	0.000152588	
5.96039	0.0231934	0	
5.96344	0.022583	0	
5.96497	0.0231934	0.000457764	
5.96436	0.0231934	0.000305176	
5.96527	0.0231934	0.000152588	
5.96527	0.0231934	0.000610352	
5.96497	0.022583	0.0012207	
5.96436	0.0228882	0.000915527	
5.96527	0.0238037	0.000305176	
5.96497	0.0271606	0.000762939	
5.96405	0.027771	0.000610352	
5.96497	0.0280762	0.000610352	
5.96527	0.0274658	0.000762939	
5.96527	0.027771	-0.000610352	
5.96466	0.0274658	-0.000305176	
5.96436	0.0280762	0.000152588	
5.96527	0.0274658	0.000457764	
5.96466	0.0280762	0.000305176	
5.96558	0.027771	0.000305176	
5.96497	0.027771	0.000610352	
5.96527	0.0286865	0.000762939	
5.96527	0.027771	0.000915527	
5.96466	0.0280762	0.000457764	
5.96558	0.0280762	0	
5.96588	0.0280762	0.00106812	
5.96497	0.0283813	0.000457764	
5.96497	0.027771	0.000152588	
5.96497	0.0274658	-0.000152588	
5.96466	0.0274658	0	
5.96436	0.0280762	0.000152588	
5.96527	0.0280762	0.000152588	
5.96466	0.027771	0	
5.96497	0.0280762	0.000762939	
5.96497	0.0271606	0.000915527	
5.96436	0.0280762	0.00167847	
5.96497	0.0280762	0.000762939	
5.96466	0.0286865	0.000610352	
5.96436	0.0323486	0.000610352	
5.96558	0.032959	0.000610352	
5.96497	0.0326538	0.000457764	
5.96527	0.032959	0.000152588	
5.96527	0.0326538	0.000152588	
5.96527	0.032959	0.000762939	
5.96558	0.0326538	-0.000152588	
5.96863	0.0323486	0.000152588	
5.96985	0.032959	0.000762939	
5.97015	0.0323486	0.000610352	
5.96985	0.032959	0.000457764	
5.97015	0.032959	0.000610352	
5.97015	0.0326538	0.000610352	
5.96924	0.0323486	0.000762939	
5.97015	0.0326538	0.000305176	
5.97046	0.032959	0.000610352	
5.96924	0.032959	-0.000457764	
5.96954	0.0332642	-0.000152588	
5.96985	0.032959	0.000152588	
5.97015	0.0332642	0.000305176	
5.97015	0.0323486	0.000457764	
5.97015	0.0323486	0	
5.96985	0.032959	0.000762939	
5.97015	0.0332642	0.00106812	
5.96985	0.0335693	0.000762939	
5.96954	0.032959	0.000152588	
5.97046	0.0326538	0.000152588	
5.96985	0.0326538	0.00106812	
5.97046	0.0332642	0	
5.96985	0.0332642	-0.000152588	
5.97046	0.0332642	0	
5.97046	0.0326538	0.000152588	
5.96985	0.0323486	0	
5.96954	0.0326538	0.000457764	
5.97046	0.0326538	0.000457764	
5.97015	0.0332642	0.000457764	
5.96954	0.032959	0.000915527	
5.96985	0.0332642	0.00198364	
5.97015	0.032959	0.000457764	
5.97015	0.032959	0.000610352	
5.96985	0.032959	0.000610352	
5.97046	0.0326538	0.000610352	
5.97076	0.0323486	0.000305176	
5.96985	0.0326538	0.000152588	
5.96985	0.032959	0.000152588	
5.97015	0.0326538	0.000457764	
5.96985	0.032959	-0.000305176	
5.97046	0.0326538	0	
5.96954	0.0323486	0.000762939	
5.96985	0.032959	0.000762939	
5.97046	0.032959	0.000915527	
5.97046	0.0332642	0.000457764	
5.97351	0.0326538	0.000762939	
5.97473	0.032959	0.000762939	
5.97443	0.0323486	0.000457764	
5.97565	0.0335693	0.000457764	
5.97473	0.0326538	-0.000610352	
5.97473	0.0326538	-0.000152588	
5.97473	0.032959	0.000457764	
5.97473	0.032959	0.000305176	
5.97504	0.0326538	0.000152588	
5.97473	0.0335693	0.000305176	
5.97473	0.0326538	0.000610352	
5.97473	0.0326538	0.000457764	
5.97504	0.0326538	0.000610352	
5.97473	0.032959	0.000305176	
5.97534	0.0320435	0.000152588	
5.97534	0.032959	0.000762939	
5.97443	0.032959	0.000152588	
5.97504	0.0323486	-0.000305176	
5.97473	0.032959	0.000152588	
5.97534	0.0332642	0.000152588	
5.97534	0.032959	0.000305176	
5.97504	0.032959	0.000305176	
5.97504	0.032959	0.000762939	
5.97504	0.0326538	0.000457764	
5.97443	0.032959	0.00106812	
5.97473	0.0320435	0.00137329	
5.97504	0.0292969	0.000457764	
5.97504	0.0280762	0.000610352	
5.97473	0.0289917	0.000610352	
5.97534	0.0274658	0.000610352	
5.97534	0.027771	0.000305176	
5.97443	0.027771	-0.000152588	
5.97504	0.0274658	0.000305176	
5.97473	0.0286865	0.000915527	
5.97443	0.0283813	-0.000152588	
5.97534	0.027771	0.000305176	
5.97565	0.0271606	0.000610352	
5.97534	0.027771	0.000762939	
5.97504	0.0283813	0.000610352	
5.97473	0.0280762	0.000762939	
5.97473	0.027771	0.000457764	
5.97534	0.0274658	0.000305176	
5.97473	0.0280762	0.000610352	
5.97504	0.0283813	0.000305176	
5.97443	0.0274658	-0.000457764	
5.97473	0.027771	-0.000152588	
5.97443	0.027771	0.000457764	
5.97534	0.0265503	0.000610352	
5.9787	0.0244141	0.000305176	
5.97961	0.0234985	0.000305176	
5.98022	0.0234985	0.000610352	
5.97992	0.0231934	0.000610352	
5.97992	0.0222778	0.00106812	
5.98022	0.0231934	0.000305176	
5.97961	0.0234985	0.000610352	
5.97961	0.0238037	0.00106812	
5.98022	0.0228882	0.000152588	
5.97961	0.0228882	0.000152588	
5.97961	0.0228882	0.000457764	
5.97961	0.0234985	-0.000305176	
5.98022	0.0231934	0.000152588	
5.97961	0.0238037	-0.000152588	
5.97961	0.0231934	0.000152588	
5.97961	0.0222778	0.000305176	
5.98053	0.0198364	0.0012207	
5.97992	0.0186157	0.00137329	
5.98022	0.0183105	0.000305176	
5.97992	0.0180054	0.000305176	
5.97992	0.0183105	0.000762939	
5.98053	0.0183105	0.000457764	
5.97961	0.0180054	0.000305176	
5.97992	0.0180054	-0.000305176	
5.98022	0.0183105	0.000305176	
5.97992	0.0180054	0.000457764	
5.97961	0.0180054	0	
5.97931	0.0186157	0	
5.97961	0.0180054	0.000305176	
5.97931	0.0170898	0.000915527	
5.97931	0.0140381	0.000457764	
5.97992	0.0131226	0.000915527	
5.98022	0.0125122	0.000305176	
5.97931	0.0131226	0.000457764	
5.97961	0.0131226	0.000915527	
5.97961	0.0128174	0.000152588	
5.97992	0.0131226	-0.000457764	
5.97992	0.0131226	-0.000152588	
5.97992	0.0134277	0.000305176	
5.97931	0.0131226	0.000457764	
5.97961	0.0125122	0.000305176	
5.97992	0.00976563	0.000457764	
5.97992	0.00854492	0.000457764	
5.98083	0.00823975	0.000762939	
5.97931	0.00793457	0.000762939	
5.97992	0.00823975	0.000457764	
5.97961	0.00854492	0.000457764	
5.97961	0.00854492	0.000915527	
5.97992	0.00854492	0.000457764	
5.98022	0.00793457	-0.000152588	
5.97961	0.00701904	0	
5.97961	0.00366211	0	
5.97992	0.00366211	0.000152588	
5.97961	0.00274658	-0.000152588	
5.97931	0.00366211	0.000152588	
5.979	0.00335693	0.000762939	
5.98053	0.00335693	0.00106812	
5.98297	0.00335693	0.0012207	
5.9845	0.00335693	0.000457764	
5.9848	0.00305176	0.000305176	
5.9848	0.00274658	0.000610352	
5.98511	-0.000305176	0.000305176	
5.98511	-0.0012207	0	
5.98511	-0.00152588	-0.000457764	
5.9845	-0.000915527	0.000305176	
5.9845	-0.0012207	0.000457764	
5.98511	-0.000610352	-0.000152588	
5.98419	-0.00152588	0.000762939	
5.9845	-0.000915527	0.000305176	
5.9845	-0.00213623	0.000762939	
5.9848	-0.00427246	0.000762939	
5.9845	-0.00579834	0.000610352	
5.9848	-0.00549316	0.000152588	
5.9848	-0.00579834	0.000610352	
5.98511	-0.00579834	0.00106812	
5.9848	-0.00579834	0.000762939	
5.98511	-0.00549316	-0.000915527	
5.9848	-0.00671387	0	
5.9848	-0.00946045	0.000152588	
5.9848	-0.0109863	0.000305176	
5.9848	-0.0112915	0	
5.9845	-0.0109863	0.000152588	
5.98541	-0.0115967	0.000610352	
5.9845	-0.0109863	0.000457764	
5.9848	-0.0109863	0.00106812	
5.9848	-0.0109863	0.000152588	
5.9845	-0.012207	0.000762939	
5.98511	-0.0146484	0.000762939	
5.98419	-0.0158691	0.000457764	
5.9845	-0.0161743	-0.000152588	
5.9845	-0.0149536	0.000152588	
5.9848	-0.0161743	-0.000152588	
5.98511	-0.0164795	0	
5.9845	-0.0170898	0.000152588	
5.98511	-0.0201416	0.000610352	
5.9848	-0.0210571	0.000152588	
5.9845	-0.0216675	0.000762939	
5.9848	-0.0213623	0.00152588	
5.98419	-0.020752	0.000457764	
5.9848	-0.0204468	0.000305176	
5.9848	-0.0210571	0.000915527	
5.9848	-0.0216675	0.000457764	
5.98511	-0.0247192	0.000457764	
5.9845	-0.0256348	0.000152588	
5.9845	-0.0259399	0.000305176	
5.98511	-0.0256348	0.000457764	
5.9848	-0.0259399	-0.000152588	
5.9848	-0.0262451	0.000305176	
5.9845	-0.0268555	0.000305176	
5.9845	-0.0296021	0.0012207	
5.98572	-0.0299072	0.000457764	
5.9848	-0.0311279	0.000762939	
5.98541	-0.0308228	0.000610352	
5.98511	-0.0311279	0.000610352	
5.98572	-0.0308228	0.000610352	
5.98511	-0.0320435	0.000457764	
5.98511	-0.0350952	-0.000762939	
5.98572	-0.0357056	-0.000152588	
5.98877	-0.0354004	0.000305176	
5.98969	-0.0354004	0.000457764	
5.98969	-0.0360107	-0.000152588	
5.98969	-0.0350952	0.000152588	
5.98938	-0.0363159	0.000305176	
5.98999	-0.0393677	0.000305176	
5.98969	-0.0405884	0.000762939	
5.98969	-0.0408936	0.000457764	
5.98999	-0.0411987	0.000457764	
5.98999	-0.0402832	0.000610352	
5.98969	-0.0405884	0.000152588	
5.98969	-0.0415039	-0.000305176	
5.98999	-0.0442505	0.000305176	
5.98999	-0.0454712	0.000152588	
5.98969	-0.0457764	0.000457764	
5.98969	-0.0454712	0	
5.98969	-0.0457764	0.000305176	
5.98969	-0.0457764	0.000457764	
5.98999	-0.0466919	0.00137329	
5.98999	-0.0488281	0.0012207	
5.98999	-0.0500488	0.000305176	
5.9903	-0.050354	0.000152588	
5.9906	-0.050354	0.000915527	
5.98999	-0.0500488	0.000610352	
5.98907	-0.0521851	0.000457764	
5.98969	-0.0546265	-0.000152588	
5.98999	-0.055542	0.000152588	
5.9903	-0.0552368	0.000457764	
5.98969	-0.055542	0.000305176	
5.98969	-0.055542	0.000610352	
5.98969	-0.0564575	0.000305176	
5.98999	-0.0588989	0.000762939	
5.98969	-0.0601196	0.000610352	
5.98969	-0.0604248	0.000762939	
5.98999	-0.0604248	0.000457764	
5.98969	-0.0604248	0.000457764	
5.9903	-0.0613403	0.000915527	
5.98938	-0.0637817	0.000610352	
5.98938	-0.0656128	-0.000610352	
5.98969	-0.0653076	0	
5.98999	-0.0653076	0.000762939	
5.98969	-0.0653076	0.000152588	
5.98999	-0.0662231	0.000305176	
5.98999	-0.0686646	0.000152588	
5.98907	-0.0704956	0.000915527	
5.98969	-0.0701904	0.000457764	
5.98907	-0.0704956	0.000457764	
5.98969	-0.0701904	0.000457764	
5.98938	-0.0717163	0.000457764	
5.9903	-0.0741577	0.000762939	
5.98969	-0.0750732	0.000457764	
5.98938	-0.0753784	-0.000152588	
5.98969	-0.0753784	0.000457764	
5.98999	-0.0744629	0.000152588	
5.98969	-0.0756836	0.000610352	
5.98999	-0.0784302	0	
5.98999	-0.0793457	0.000305176	
5.98969	-0.0802612	0.000457764	
5.98999	-0.0796509	0.000915527	
5.98969	-0.0796509	0.0012207	
5.98907	-0.0805664	0.000762939	
5.98999	-0.0830078	0.000305176	
5.99304	-0.0848389	0.000915527	
5.99426	-0.0848389	0.000152588	
5.99457	-0.0854492	0.000305176	
5.99579	-0.0845337	0.000305176	
5.99487	-0.0857544	0.000457764	
5.99426	-0.088501	0.000305176	
5.99518	-0.0897217	-0.000152588	
5.99396	-0.0897217	0.000610352	
5.99396	-0.0900269	0.000915527	
5.99457	-0.0900269	0.0012207	
5.99487	-0.090332	0.000305176	
5.99487	-0.0927734	0.000457764	
5.99457	-0.0949097	0.000457764	
5.99487	-0.0949097	0.000457764	
5.99396	-0.0946045	0.000610352	
5.99457	-0.0946045	0.000915527	
5.99426	-0.09552	-0.000610352	
5.99457	-0.0982666	0.000152588	
5.99457	-0.0985718	0.000305176	
5.99457	-0.0994873	0.000457764	
5.99487	-0.100098	0.000152588	
5.99457	-0.100403	0.000305176	
5.99487	-0.10376	0.000610352	
5.99457	-0.10437	0.000305176	
5.99579	-0.104065	0.000915527	
5.99426	-0.10437	0.000305176	
5.99487	-0.104065	0.000457764	
5.99396	-0.10498	0.000915527	
5.99426	-0.108337	0.000305176	
5.99457	-0.109558	-0.000305176	
5.99457	-0.109558	0.000152588	
5.99426	-0.109558	0.000457764	
5.99457	-0.109558	0	
5.99457	-0.110779	0	
5.99426	-0.113525	-0.000152588	
5.99487	-0.113831	0.000457764	
5.99426	-0.113831	0.0012207	
5.99457	-0.114136	0.0012207	
5.99518	-0.114441	0.000457764	
5.99457	-0.115051	0.000305176	
5.99457	-0.117798	0.000915527	
5.99487	-0.119324	0.000457764	
5.99426	-0.119934	0.000152588	
5.99457	-0.119324	-0.000152588	
5.99426	-0.119324	0.000152588	
5.99457	-0.119629	0.000457764	
5.99518	-0.12207	0	
5.99457	-0.123901	0.000305176	
5.99426	-0.124207	0.000610352	
5.99518	-0.124207	0.00106812	
5.99426	-0.123291	0.000457764	
5.99518	-0.124817	0.000762939	
5.99426	-0.127563	0.000305176	
5.99426	-0.129089	0.000457764	
5.99457	-0.128479	0.000915527	
5.99457	-0.129089	0.000305176	
5.99487	-0.130005	-0.000457764	
5.99518	-0.132446	0.000305176	
5.99518	-0.133667	0.000457764	
5.99487	-0.134583	0	
5.99426	-0.133667	0.000457764	
5.99487	-0.133667	0.000152588	
5.99457	-0.134277	0.000762939	
5.99487	-0.137939	0.000457764	
5.99457	-0.138245	0.000610352	
5.99487	-0.13855	0.000305176	
5.99457	-0.138245	0.000457764	
5.99426	-0.13855	0.000915527	
5.99487	-0.139465	0.000305176	
5.99457	-0.142822	0	
5.99426	-0.143738	0.000152588	
5.99457	-0.144043	0	
5.99518	-0.143433	0	
5.99426	-0.143433	0	
5.99518	-0.144653	0.000152588	
5.99457	-0.147705	0.000305176	
5.99518	-0.148621	0.000915527	
5.99457	-0.148621	0.00106812	
5.99426	-0.14801	0	
5.99487	-0.148621	0.000915527	
5.99457	-0.149231	0.000152588	
5.99487	-0.151978	0.000762939	
5.99396	-0.152893	-0.000152588	
5.99457	-0.153503	0	
5.99457	-0.153198	0.000305176	
5.99426	-0.153503	0.000305176	
5.99457	-0.152893	0	
5.99487	-0.154419	0.000457764	
5.99426	-0.157471	0.000610352	
5.99457	-0.157471	0.000915527	
5.99457	-0.158386	0.000457764	
5.99487	-0.157776	0.000762939	
5.99457	-0.157471	0.000762939	
5.99548	-0.158997	0.000457764	
5.99762	-0.162048	0.000457764	
5.99945	-0.162659	0.000457764	
5.99945	-0.163269	-0.000610352	
6.00006	-0.163269	-0.000305176	
5.99976	-0.163574	0.000305176	
5.99976	-0.162964	0.000305176	
6.00037	-0.163574	0.000457764	
5.99976	-0.166626	0.000457764	
6.00098	-0.167847	0.000457764	
5.99976	-0.168152	0.000457764	
5.99915	-0.167542	0.000762939	
5.99976	-0.168152	0.000762939	
6.00037	-0.169373	0.000305176	
5.99976	-0.171509	0.000610352	
5.99945	-0.172119	0.000457764	
5.99945	-0.173035	-0.000305176	
5.99945	-0.173035	0.000610352	
5.99884	-0.173035	-0.000152588	
6.00006	-0.17395	0.000457764	
5.99945	-0.173645	0	
6.00037	-0.177307	0.000305176	
5.99976	-0.177612	0.000457764	
5.99915	-0.177917	0.000762939	
6.00006	-0.177612	0.0012207	
6.00006	-0.177612	0.000610352	
5.99945	-0.177917	0.000457764	
5.99945	-0.177612	0.000762939	
6.00006	-0.178528	0.000762939	
5.99915	-0.181885	0.000152588	
5.99976	-0.182495	-0.000152588	
6.00006	-0.1828	0.000305176	
5.99976	-0.183105	0.000152588	
5.99945	-0.183105	0.000152588	
5.99945	-0.1828	0.000915527	
5.99976	-0.18219	0.000610352	
5.99884	-0.1828	0.000915527	
5.99976	-0.183105	0.000610352	
5.99976	-0.186462	0.000152588	
5.99945	-0.187073	0.00106812	
5.99884	-0.187683	0.000305176	
5.99945	-0.187988	0.000762939	
6.00037	-0.188293	0.000610352	
6.00037	-0.187988	-0.00106812	
5.99976	-0.187378	-0.000152588	
5.99976	-0.187683	0.000457764	
5.99945	-0.187378	0.000305176	
5.99976	-0.188599	0.000152588	
5.99884	-0.191345	0.000305176	
5.99976	-0.191956	0.000762939	
5.99976	-0.192566	0.000610352	
5.99976	-0.193176	0.00106812	
5.99976	-0.191956	0.000610352	
5.99976	-0.192261	0.000152588	
5.99976	-0.192566	0.000610352	
5.99945	-0.191956	0.000305176	
5.99976	-0.193176	-0.000152588	
5.99976	-0.192871	0.000152588	
5.99976	-0.192566	0.000152588	
5.99945	-0.192261	0.000152588	
5.99945	-0.193481	0.000152588	
5.99945	-0.196533	0.000610352	
5.99915	-0.197449	0.000152588	
5.99945	-0.197754	0.0012207	
5.99945	-0.197144	0.00137329	
5.99976	-0.197144	0.000152588	
6.00006	-0.197754	0.000762939	
5.99976	-0.197144	0.000762939	
5.99945	-0.197449	0.000305176	
5.99976	-0.198059	0.000152588	
5.99915	-0.197144	0.000152588	
5.99915	-0.197144	0.000305176	
6.00037	-0.197754	0.000152588	
6.00006	-0.197754	0	
6.00006	-0.197144	0.000305176	
5.99915	-0.197449	0.000610352	
5.99884	-0.198059	0.00106812	
5.99976	-0.196838	0.000457764	
5.99976	-0.197754	0.000762939	
6.00037	-0.196838	0.000610352	
5.99976	-0.197449	0.000762939	
5.99915	-0.197754	0.000305176	
5.99976	-0.197144	0.000457764	
5.99976	-0.197449	-0.000762939	
5.99976	-0.197449	-0.000152588	
5.99945	-0.197144	0.000915527	
5.99976	-0.197754	0.000152588	
5.99945	-0.197144	0	
6.00006	-0.197144	0.000305176	
5.99945	-0.197144	0.000457764	
5.99976	-0.197449	0.000457764	
6.00037	-0.197754	0.000915527	
6.00006	-0.197144	0.000152588	
5.99884	-0.197754	0.000457764	
5.99976	-0.196838	0.000457764	
5.99945	-0.197144	0.000457764	
5.99945	-0.196228	-0.000305176	
6.00006	-0.192871	0.000610352	
5.99915	-0.192871	0	
6.00006	-0.192261	0.000457764	
5.99915	-0.192261	0.000305176	
6.00006	-0.193176	0.000152588	
5.99945	-0.192566	0.000305176	
5.99976	-0.192871	0.000915527	
5.99945	-0.192566	0.00137329	
5.99976	-0.192871	0.000152588	
5.99976	-0.192261	0.000762939	
5.99976	-0.192566	0.000610352	
6.00006	-0.191345	0.000457764	
5.99945	-0.188599	0.000152588	
5.99945	-0.187683	-0.000152588	
6.00037	-0.187378	0.000457764	
6.00006	-0.187378	0.000457764	
5.99976	-0.188293	-0.000152588	
5.99945	-0.187683	0.000610352	
5.99945	-0.187988	0.000457764	
5.99976	-0.187378	0.000762939	
5.99976	-0.184021	0.000152588	
5.99976	-0.183105	0.000457764	
6.00006	-0.1828	0.000762939	
5.99976	-0.183105	0.000152588	
5.99915	-0.1828	0.000762939	
5.99945	-0.18219	0.000305176	
5.99945	-0.179749	-0.000762939	
5.99945	-0.178223	-0.000152588	
5.99976	-0.177917	0.000305176	
5.99945	-0.177917	0.000152588	
5.99945	-0.178223	0	
6.00006	-0.177002	0.000305176	
6.00006	-0.173645	0.000762939	
5.99915	-0.172729	0.000457764	
5.99976	-0.172119	0.000915527	
5.99976	-0.172424	0.000305176	
5.99945	-0.172424	0.000457764	
5.99976	-0.168762	0.000152588	
5.99915	-0.167847	-0.000152588	
5.99945	-0.167542	-0.000610352	
5.99976	-0.166931	0.000305176	
5.99945	-0.164185	0	
5.99945	-0.163269	0	
5.99945	-0.162354	0	
5.99854	-0.162659	0	
5.99579	-0.162048	0.000457764	
5.99487	-0.159607	0.000762939	
5.99487	-0.158386	0.00106812	
5.99457	-0.158081	0.000610352	
5.99487	-0.157471	0.000457764	
5.99487	-0.154419	0.000610352	
5.99457	-0.153503	0.000152588	
5.99457	-0.151367	0.000152588	
5.99457	-0.149841	0	
5.99457	-0.148315	0.000152588	
5.99487	-0.148621	0.000457764	
5.99457	-0.1474	0	
5.99457	-0.144653	0.000915527	
5.99487	-0.143738	0.000762939	
5.99396	-0.142517	0.000762939	
5.99487	-0.139771	0.000610352	
5.99426	-0.13916	0.000305176	
5.99487	-0.137939	0.000610352	
5.99518	-0.134888	0.000762939	
5.99487	-0.133972	0.000762939	
5.99487	-0.133972	0.000762939	
5.99426	-0.133057	-0.000457764	
5.99457	-0.130615	0	
5.99426	-0.129395	0.000457764	
5.99487	-0.128479	0.000762939	
5.99457	-0.125122	0.000610352	
5.99518	-0.124207	0	
5.99457	-0.123291	0.000457764	
5.99487	-0.120239	0.000610352	
5.99457	-0.118713	0.000305176	
5.99518	-0.115051	0.000305176	
5.99487	-0.114441	0.000457764	
5.99457	-0.11261	0.000305176	
5.99457	-0.110474	0.000305176	
5.99457	-0.108643	-0.000305176	
5.99487	-0.108032	0.000457764	
5.99487	-0.106201	0.000610352	
5.99457	-0.10437	0.000152588	
5.99457	-0.104065	0.000152588	
5.99487	-0.100708	0.000305176	
5.99457	-0.0985718	0.000152588	
5.99396	-0.0949097	0.00106812	
5.99457	-0.0942993	0.00106812	
5.99487	-0.0946045	0.000457764	
5.99487	-0.0906372	0.000305176	
5.99487	-0.0888062	0.000762939	
5.99487	-0.085144	0.000457764	
5.99426	-0.0848389	-0.000152588	
5.99548	-0.0839233	0.000152588	
5.99426	-0.0808716	0.000152588	
5.99457	-0.0790405	0.000457764	
5.99426	-0.0756836	-0.000152588	
5.99457	-0.0750732	0.000915527	
5.99579	-0.0735474	0.000152588	
5.99518	-0.0704956	0.0012207	
5.99426	-0.0689697	0.000305176	
5.99487	-0.0668335	0.000762939	
5.99457	-0.0640869	0.000457764	
5.99487	-0.0616455	0.000305176	
5.99518	-0.0601196	0.000762939	
5.99548	-0.0595093	0.000457764	
5.99487	-0.0564575	-0.000610352	
5.99457	-0.0549316	0.000152588	
5.99457	-0.0509644	0.000610352	
5.99457	-0.0494385	0.000305176	
5.99487	-0.0466919	0	
5.99457	-0.0457764	0.000152588	
5.99457	-0.0442505	0.000915527	
5.99457	-0.0415039	0.000457764	
5.99457	-0.0396729	0.000915527	
5.99518	-0.0369263	0.000305176	
5.99457	-0.0354004	0.000152588	
5.99487	-0.0317383	0.000457764	
5.99457	-0.0311279	0.000762939	
5.99518	-0.0302124	-0.000457764	
5.99518	-0.0265503	0.000305176	
5.99396	-0.0247192	0.000305176	
5.99518	-0.0219727	0.000305176	
5.99487	-0.0204468	0.000305176	
5.99457	-0.0177002	0.000152588	
5.99518	-0.0146484	0.000610352	
5.99457	-0.0119019	0.000610352	
5.99457	-0.00946045	0.0012207	
5.99426	-0.00671387	0.000457764	
5.99457	-0.00640869	0.000457764	
5.99396	-0.00518799	0.000610352	
5.99426	-0.00244141	0.000762939	
5.99457	-0.0012207	0	
5.99426	0.00244141	0	
5.99457	0.00488281	0.000152588	
5.99426	0.00701904	0.000305176	
5.99426	0.00976563	-0.000305176	
5.99487	0.0128174	0.000457764	
5.99457	0.0140381	0.000762939	
5.99457	0.0183105	0.000915527	
5.99518	0.0180054	0.000152588	
5.99487	0.0189209	0.000762939	
5.99426	0.0222778	0.000305176	
5.99487	0.0234985	0.000305176	
5.99457	0.0268555	0.000762939	
5.99457	0.0286865	0.000152588	
5.99518	0.0314331	-0.000152588	
5.99487	0.0341797	0.000152588	
5.99518	0.0369263	0.000610352	
5.99457	0.0390625	0	
5.99457	0.0421143	0.000305176	
5.99426	0.0439453	0	
5.99457	0.0466919	0.000457764	
5.99457	0.0473022	0.000610352	
5.99518	0.0488281	0.000915527	
5.99396	0.0515747	0.000610352	
5.99487	0.0527954	0.000457764	
5.99487	0.0567627	0.000305176	
5.99457	0.0588989	0.000152588	
5.99426	0.0613403	-0.000152588	
5.99518	0.0628662	0.000457764	
5.99457	0.0662231	-0.000152588	
5.99457	0.0668335	0	
5.99426	0.0686646	0	
5.99091	0.0717163	0.000305176	
5.98999	0.0738525	0.000305176	
5.98938	0.0759888	0.0012207	
5.98999	0.078125	0.00106812	
5.98938	0.0802612	0.000762939	
5.98969	0.0823975	0.000610352	
5.98907	0.0854492	0.000457764	
5.98969	0.0866699	0.000915527	
5.9903	0.0866699	0.000152588	
5.98969	0.0900269	0.000152588	
5.9903	0.0915527	0.000152588	
5.98938	0.0952148	0.000152588	
5.98999	0.0967407	0	
5.98969	0.0994873	0.000915527	
5.98999	0.100708	0.000457764	
5.98969	0.102539	0.0012207	
5.98999	0.10437	0.000610352	
5.98969	0.106201	0.000915527	
5.98969	0.109558	0.000457764	
5.98969	0.111389	0.000305176	
5.98969	0.114441	0.000762939	
5.98999	0.115662	0.000305176	
5.98938	0.116577	-0.000610352	
5.98907	0.119019	0	
5.98938	0.121155	0.000762939	
5.98999	0.123901	0.000305176	
5.98999	0.125427	0.000457764	
5.9903	0.126953	0	
5.98969	0.1297	0.000915527	
5.98999	0.131531	0.000152588	
5.9903	0.133667	0.000762939	
5.98969	0.134888	0.000305176	
5.98938	0.136108	0.000457764	
5.98999	0.138855	0.000457764	
5.98938	0.140686	-0.000152588	
5.98907	0.144348	-0.000457764	
5.98969	0.145569	0.000305176	
5.98969	0.145874	0.000152588	
5.98969	0.148621	0.000305176	
5.9903	0.149841	0	
5.9903	0.151062	0.000152588	
5.98907	0.154419	0.000762939	
5.98907	0.15625	0.0012207	
5.98999	0.158691	0.000610352	
5.98999	0.159607	0.000457764	
5.98999	0.160522	0.000610352	
5.98969	0.163269	0.000457764	
5.98938	0.16449	0.000610352	
5.98969	0.165405	0	
5.98969	0.168152	0	
5.98907	0.169067	0.000762939	
5.98938	0.170593	0.000152588	
5.98938	0.173035	0.000305176	
5.98938	0.174255	0.000610352	
5.98999	0.175171	0.000610352	
5.98999	0.178833	0.00106812	
5.98999	0.179749	0.000610352	
5.98938	0.180054	0.000610352	
5.98999	0.183411	0.000457764	
5.98969	0.184021	0.000457764	
5.98938	0.185547	0.00106812	
5.9903	0.187683	0.000152588	
5.9906	0.189514	-0.000610352	
5.98999	0.190125	0.000152588	
5.98969	0.192871	0.000457764	
5.98969	0.194092	-0.000152588	
5.98999	0.195313	0.000457764	
5.9906	0.197449	0	
5.98969	0.198669	0.000915527	
5.98999	0.19928	0.000457764	
5.98969	0.2005	0.000915527	
5.98907	0.203247	0.000457764	
5.98969	0.203247	0	
5.98999	0.204773	0.00106812	
5.98969	0.207214	0.000152588	
5.98999	0.20813	-0.000152588	
5.98969	0.209351	0.000305176	
5.98999	0.210266	0.000305176	
5.98969	0.213013	0.000457764	
5.98877	0.213318	0.000152588	
5.98999	0.214233	0.000762939	
5.98999	0.21759	0.000762939	
5.9903	0.218506	0.000915527	
5.98938	0.219116	0.0012207	
5.98969	0.220032	0.000457764	
5.98999	0.222473	0.000762939	
5.98969	0.223999	0.000305176	
5.98877	0.223694	0.000610352	
5.98602	0.224915	0	
5.98541	0.227051	0.000152588	
5.98511	0.227661	0.000152588	
5.9848	0.228577	0.000305176	
5.9848	0.228577	0	
5.9848	0.229492	0.000915527	
5.98511	0.232239	0.000610352	
5.9848	0.233459	0.000762939	
5.9848	0.233765	0.000305176	
5.98511	0.23468	0.000610352	
5.9845	0.237732	0.000305176	
5.98511	0.238647	0.000457764	
5.9848	0.238342	0.000915527	
5.9848	0.238342	0.000457764	
5.98511	0.238953	-0.000915527	
5.9845	0.24231	0.000152588	
5.9848	0.242615	0.000762939	
5.98511	0.24292	0.000152588	
5.9848	0.24353	0.000610352	
5.9848	0.24292	0.000305176	
5.98511	0.244446	0.000762939	
5.9848	0.246582	0.000457764	
5.98511	0.247803	0.000762939	
5.98511	0.247498	0.000152588	
5.9848	0.248108	0	
5.9845	0.247803	0.000610352	
5.9848	0.248413	0.000152588	
5.9848	0.251465	-0.000152588	
5.9845	0.252991	0.000152588	
5.9845	0.252686	-0.000152588	
5.9845	0.252991	0.000152588	
5.9845	0.252686	0.000305176	
5.98419	0.254211	0.000457764	
5.9848	0.256958	0.000457764	
5.98511	0.257263	0.000762939	
5.98511	0.258789	0.00106812	
5.98511	0.257874	0.000305176	
5.98511	0.257568	0.000305176	
5.9848	0.258484	0.000762939	
5.98511	0.258179	0.000457764	
5.98511	0.258789	-0.000152588	
5.9845	0.26123	0	
5.9845	0.262451	0.000762939	
5.9848	0.262756	0.000152588	
5.98511	0.262451	-0.000152588	
5.9845	0.262451	0.000762939	
5.9848	0.263367	0.000762939	
5.98511	0.263062	0.00106812	
5.98419	0.262756	0.000457764	
5.98541	0.263367	0.000610352	
5.98572	0.263672	0.000152588	
5.98419	0.266113	0.000457764	
5.98511	0.267639	0.000915527	
5.9848	0.267944	0.000152588	
5.98511	0.267334	-0.000610352	
5.9845	0.267944	0.000152588	
5.98419	0.267639	0.000457764	
5.98419	0.267639	0.000152588	
5.9848	0.267334	0.000152588	
5.98541	0.267944	0.000152588	
5.9845	0.26825	0.000915527	
5.9845	0.267639	0.000457764	
5.9848	0.267029	0.000762939	
5.9845	0.267944	0.000915527	
5.9848	0.267029	0.000610352	
5.9845	0.268555	0.000610352	
5.9845	0.271301	-0.000152588	
5.9845	0.272827	-0.000152588	
5.98511	0.272217	0.000457764	
5.98511	0.272522	0.000152588	
5.9845	0.271912	0	
5.9848	0.272217	0	
5.9845	0.273132	0.000762939	
5.9845	0.272827	0.000610352	
5.9848	0.272522	0.0012207	
5.9848	0.272522	0.00106812	
5.98541	0.271912	0.000305176	
5.9845	0.272217	0.000762939	
5.9845	0.272522	0.000305176	
5.9845	0.272217	0.000610352	
5.9848	0.272827	0	
5.9848	0.272522	0	
5.98511	0.271606	0.000305176	
5.9845	0.272522	0.000152588	
5.98419	0.273132	0.000152588	
5.9845	0.272217	0.000762939	
5.98389	0.272522	0.000457764	
5.98053	0.273132	0.000915527	
5.979	0.272827	0.000762939	
5.97961	0.271912	0.000305176	
5.97961	0.271912	0.000610352	
5.97961	0.272522	0.000152588	
5.97992	0.272217	0.000305176	
5.97961	0.272827	-0.000152588	
5.97961	0.271606	-0.000457764	
5.97961	0.272522	0.000305176	
5.97992	0.273132	0.000610352	
5.97961	0.272827	0.000305176	
5.97961	0.271912	0.000457764	
5.97961	0.26886	0	
5.979	0.267639	0.000762939	
5.97961	0.267334	0.000610352	
5.97992	0.267334	0.000762939	
5.97992	0.267639	0.000762939	
5.979	0.267334	0.000610352	
5.97992	0.26825	0.000610352	
5.97961	0.267944	0	
5.97992	0.267944	0	
5.97992	0.267029	0.000305176	
5.97931	0.267639	0.000152588	
5.97992	0.267944	0	
5.97992	0.267334	0.000457764	
5.97961	0.267334	0.000152588	
5.97961	0.267639	0.000610352	
5.98053	0.267029	0.00106812	
5.97931	0.263977	0.000762939	
5.97931	0.262756	0.000152588	
5.98022	0.262146	0.000762939	
5.97961	0.263062	0.000610352	
5.97961	0.262451	0.000457764	
5.97961	0.262451	0	
5.97961	0.262451	0	
5.98022	0.262146	0.000610352	
5.97931	0.262451	0.000457764	
5.97992	0.261841	0	
5.97961	0.259399	0.000457764	
5.97992	0.258484	0.000762939	
5.98022	0.257874	0.000915527	
5.97992	0.257568	0.000305176	
5.98022	0.257874	0.000610352	
5.98022	0.257263	0.000762939	
5.97992	0.257263	-0.000152588	
5.98022	0.257874	0.000152588	
5.97992	0.256348	0.000305176	
5.97992	0.254517	-0.000457764	
5.97992	0.252991	0.000152588	
5.97992	0.252686	0.000610352	
5.97931	0.252991	0.000152588	
5.97961	0.252991	0.000762939	
5.97992	0.252686	0	
5.97992	0.252075	0.000915527	
5.98022	0.249939	0.000457764	
5.97961	0.248413	0.000610352	
5.97992	0.248108	0.000762939	
5.97931	0.248108	0.000610352	
5.98022	0.247498	0.000457764	
5.98022	0.248108	0.000457764	
5.97931	0.247192	-0.000152588	
5.97961	0.244446	0.000305176	
5.97931	0.243225	0.000305176	
5.97992	0.24353	0	
5.97961	0.243225	0.000610352	
5.97961	0.24353	0.000457764	
5.98022	0.242615	0.00106812	
5.97961	0.239258	0.0012207	
5.98022	0.238953	0.000915527	
5.97992	0.238037	0.000305176	
5.97992	0.238037	0.000457764	
5.97992	0.238647	0.000305176	
5.97961	0.237732	0.000762939	
5.97992	0.234375	0	
5.9787	0.233765	0	
5.97656	0.233765	0.000457764	
5.97504	0.233765	0.000457764	
5.97473	0.233154	-0.000152588	
5.97504	0.232544	0.000305176	
5.97504	0.230103	0.000762939	
5.97504	0.228271	0.000915527	
5.97473	0.228271	0.000610352	
5.97443	0.229187	0.000152588	
5.97504	0.227661	0.000305176	
5.97473	0.224609	0.000610352	
5.97382	0.224304	0.000762939	
5.97443	0.223389	-0.000305176	
5.97565	0.223389	-0.000457764	
5.97504	0.222473	0.000610352	
5.97504	0.219421	0.000305176	
5.97504	0.219727	0.000152588	
5.97504	0.218201	0.000305176	
5.97504	0.218811	0	
5.97473	0.217896	0.000762939	
5.97443	0.215149	0.000152588	
5.97473	0.213623	0.000915527	
5.97473	0.214233	0.000457764	
5.97504	0.213013	0.000610352	
5.97534	0.213013	0.000305176	
5.97504	0.209656	0	
5.97443	0.208435	-0.000305176	
5.97473	0.208435	0.000152588	
5.97473	0.206604	0.000305176	
5.97504	0.205078	0	
5.97534	0.203857	0.000152588	
5.97534	0.203857	0.000457764	
5.97473	0.203247	0.000915527	
5.97443	0.202637	0.000610352	
5.97443	0.200806	0.000762939	
5.97565	0.198975	0.000457764	
5.97504	0.198364	0.000762939	
5.97504	0.198364	0.000762939	
5.97504	0.195313	0.000305176	
5.97534	0.195007	-0.000152588	
5.97443	0.193787	-0.000305176	
5.97534	0.193787	0.000610352	
5.97473	0.193176	0.000457764	
5.97382	0.189819	-0.000305176	
5.97412	0.189514	0.000610352	
5.97473	0.188599	0.000610352	
5.97473	0.187988	0.00137329	
5.97473	0.185547	0.000915527	
5.97504	0.184937	0.000305176	
5.97595	0.184326	0.000457764	
5.97504	0.1828	0.000305176	
5.97504	0.180359	0.000457764	
5.97443	0.179443	0	
5.97473	0.179138	-0.000915527	
5.97504	0.178528	0.000457764	
5.97473	0.175171	0.000305176	
5.97504	0.174561	0.000457764	
5.97473	0.173645	0.000305176	
5.97534	0.174561	0	
5.97565	0.17395	0.000610352	
5.97473	0.170288	0.000305176	
5.97504	0.170288	0.000610352	
5.97504	0.169983	0.000457764	
5.97473	0.168762	0.000610352	
5.97504	0.164795	0.000305176	
5.97504	0.164795	0.000305176	
5.97534	0.164795	-0.000305176	
5.97534	0.163574	0.000457764	
5.97443	0.160522	0	
5.97504	0.159912	0.000305176	
5.97504	0.159607	0.000152588	
5.97473	0.158691	0.000152588	
5.97504	0.156555	0.00106812	
5.97473	0.155029	0.000915527	
5.97412	0.155334	0.000762939	
5.97168	0.154114	0.000305176	
5.97076	0.150757	0.000610352	
5.96924	0.149536	0.000610352	
5.96954	0.150146	0.000610352	
5.96924	0.149536	0.000305176	
5.96893	0.146179	-0.000152588	
5.96954	0.145569	0.000457764	
5.96985	0.145264	0.000305176	
5.96954	0.144653	-0.000152588	
5.96985	0.142212	0.000305176	
5.96985	0.140381	0.000610352	
5.96924	0.139771	0.000915527	
5.96985	0.138855	0.000457764	
5.96985	0.136108	0.000457764	
5.96954	0.134583	0.000915527	
5.96954	0.135498	0.000305176	
5.96985	0.134277	0.00106812	
5.97046	0.131531	0.000152588	
5.96985	0.13031	-0.000610352	
5.97046	0.130005	0.000457764	
5.96985	0.130615	0.000457764	
5.96985	0.126343	-0.000152588	
5.96954	0.126038	0.000610352	
5.96985	0.125427	0	
5.96985	0.123901	0.000915527	
5.97015	0.12146	0.000305176	
5.97046	0.12085	0.000610352	
5.96954	0.121155	0.000457764	
5.97076	0.120239	0.000457764	
5.96954	0.119934	0.000610352	
5.96985	0.116882	-0.000152588	
5.97015	0.115662	-0.000305176	
5.96954	0.115662	0	
5.97015	0.114441	0.000305176	
5.97015	0.111389	0.000305176	
5.97015	0.111084	0.000305176	
5.97015	0.109863	0.000457764	
5.97015	0.109863	0.000762939	
5.96985	0.106506	0.000762939	
5.96985	0.105896	0.000457764	
5.96954	0.106201	0.000305176	
5.97046	0.10437	0.000610352	
5.96985	0.102234	0.000305176	
5.97015	0.101929	0.000915527	
5.97015	0.100708	0.000305176	
5.96954	0.0997925	-0.000152588	
5.96924	0.0976563	0.000457764	
5.97046	0.0961304	0.000152588	
5.97015	0.0958252	0.000152588	
5.96985	0.0961304	0.000762939	
5.96985	0.0949097	0.000762939	
5.96985	0.0918579	0.000762939	
5.97046	0.0909424	0.000762939	
5.96985	0.0912476	0.000610352	
5.97046	0.0897217	0.000762939	
5.97046	0.0869751	0.000152588	
5.96954	0.0860596	0.000762939	
5.96954	0.0872803	0	
5.96985	0.085144	-0.000762939	
5.96985	0.0820923	0.000457764	
5.97015	0.0817871	0.000915527	
5.97015	0.0811768	0.000152588	
5.97076	0.0817871	0.000305176	
5.96954	0.0802612	0.000152588	
5.97046	0.078125	0.000915527	
5.96954	0.0775146	0.000762939	
5.96985	0.0762939	0.000457764	
5.96924	0.0762939	0.000457764	
5.96954	0.0738525	0.000305176	
5.97076	0.0726318	0.000457764	
5.96954	0.0720215	0.000152588	
5.97015	0.0726318	0.000152588	
5.96924	0.0714111	-0.000152588	
5.97015	0.0683594	0	
5.97015	0.0674438	0.000152588	
5.96954	0.0665283	0.000152588	
5.96924	0.0665283	0.000915527	
5.96985	0.0662231	0.000762939	
5.96954	0.0640869	0.0012207	
5.96985	0.0622559	0.000457764	
5.96954	0.0622559	0.000457764	
5.96985	0.062561	0.000915527	
5.96985	0.0622559	0.000457764	
5.97076	0.0588989	0.000610352	
5.96985	0.0576782	0	
5.96985	0.0579834	-0.000152588	
5.96985	0.057373	0.000762939	
5.97046	0.0561523	0.000152588	
5.97015	0.0540161	-0.000152588	
5.97046	0.0524902	0.000610352	
5.97046	0.0527954	0.000762939	
5.97015	0.0521851	0.00106812	
5.96985	0.0518799	0.000305176	
5.96985	0.0488281	0.000610352	
5.97015	0.0479126	0.000762939	
5.97046	0.0476074	0.000152588	
5.97015	0.0476074	0.000305176	
5.97046	0.0463867	-0.000152588	
5.96985	0.0442505	-0.000610352	
5.96985	0.0430298	0.000610352	
5.97015	0.0427246	0.000762939	
5.97015	0.0427246	0	
5.97015	0.0424194	0.000152588	
5.97015	0.0421143	0	
5.97015	0.0390625	0.000915527	
5.97015	0.0372314	0.000305176	
5.97015	0.0378418	0.000610352	
5.96924	0.0375366	0.000610352	
5.97046	0.0378418	0.000305176	
5.97015	0.0375366	0.000762939	
5.96985	0.0344849	0	
5.96985	0.0323486	0	
5.96985	0.0326538	-0.000152588	
5.97015	0.032959	0.000305176	
5.97015	0.032959	0.000152588	
5.96954	0.0311279	0.000305176	
5.96985	0.0286865	0.000152588	
5.97015	0.0283813	0.000915527	
5.96985	0.0286865	0.000915527	
5.96985	0.027771	0.000610352	
5.96985	0.0280762	0.000610352	
5.96985	0.0268555	0.000762939	
5.97015	0.0238037	0.000457764	
5.96985	0.0231934	0.000610352	
5.97046	0.0228882	0.000152588	
5.96985	0.0228882	0	
5.96985	0.0228882	0.000457764	
5.97015	0.0234985	0.000457764	
5.97046	0.0222778	0	
5.97107	0.0195313	0.000457764	
5.96985	0.0189209	0.000610352	
5.96985	0.0177002	0.000915527	
5.97015	0.017395	0.000305176	
5.96985	0.0186157	0.000915527	
5.97015	0.0183105	0.000915527	
5.96985	0.0180054	0	
5.97015	0.0167847	0.000457764	
5.96924	0.0134277	0.000305176	
5.96924	0.0137329	-0.000457764	
5.96985	0.0131226	0.000457764	
5.97015	0.0131226	0.000610352	
5.96954	0.0128174	-0.000152588	
5.96741	0.0131226	0.000152588	
5.96558	0.0125122	0	
5.96466	0.00946045	0.000762939	
5.96527	0.00823975	0.000610352	
5.96466	0.00762939	0.000915527	
5.96466	0.00793457	0.000457764	
5.96527	0.00823975	0.000610352	
5.96527	0.00854492	0.000457764	
5.96436	0.00823975	0.000152588	
5.96497	0.00854492	-0.000152588	
5.96497	0.00732422	0	
5.96466	0.00427246	0.000152588	
5.96466	0.00335693	0.000305176	
5.96558	0.00305176	0.000457764	
5.96558	0.00335693	0.000305176	
5.96466	0.00366211	0.00106812	
5.96527	0.00366211	0.00137329	
5.96558	0.00396729	0.000610352	
5.96497	0.00305176	0.000305176	
5.96436	0.00305176	0.000457764	
5.96527	-0.000305176	0.000457764	
5.96527	-0.00152588	0.000915527	
5.96466	-0.0012207	0.000152588	
5.96497	-0.00152588	-0.000152588	
5.96497	-0.0012207	0.000610352	
5.96497	-0.00152588	0	
5.96436	-0.0012207	0	
5.96436	-0.0012207	0.000610352	
5.96466	-0.000915527	0.000610352	
5.96436	-0.00183105	0.000915527	
5.96497	-0.00427246	0.000610352	
5.96527	-0.00579834	0.000457764	
5.96466	-0.00610352	0.000762939	
5.96466	-0.00671387	0.000457764	
5.96558	-0.00640869	0.000762939	
5.96527	-0.00640869	-0.000152588	
5.96466	-0.00640869	-0.000762939	
5.96466	-0.00640869	0.000305176	
5.96466	-0.00640869	0.000915527	
5.96588	-0.00610352	0.000305176	
5.96558	-0.00701904	0.000305176	
5.96527	-0.00946045	0.000305176	
5.96527	-0.010376	0.0012207	
5.96588	-0.0112915	0.000610352	
5.96527	-0.0106812	0.000610352	
5.96527	-0.012207	0.000762939	
5.96497	-0.0109863	0.000305176	
5.96619	-0.0109863	0.000762939	
5.96863	-0.010376	0	
5.96924	-0.0109863	-0.000152588	
5.96985	-0.0109863	0.000152588	
5.97015	-0.0112915	0.000457764	
5.97015	-0.0109863	0.000457764	
5.96985	-0.0109863	-0.000305176	
5.96985	-0.012207	0.000610352	
5.97015	-0.0143433	0.00106812	
5.97015	-0.0158691	0.000915527	
5.96985	-0.0158691	0.00106812	
5.96954	-0.015564	0.000457764	
5.96985	-0.0152588	0.000762939	
5.96985	-0.0161743	0.000305176	
5.97015	-0.0158691	0.000152588	
5.96954	-0.0164795	0.000457764	
5.97046	-0.0164795	-0.000152588	
5.97015	-0.0161743	0.000457764	
5.96954	-0.0161743	0.000305176	
5.96985	-0.0158691	0.000152588	
5.96985	-0.0149536	0.000762939	
5.96954	-0.015564	0.000762939	
5.96954	-0.0170898	0.000915527	
5.96985	-0.0195313	0.000610352	
5.96985	-0.0213623	0.000610352	
5.96924	-0.0213623	0.00106812	
5.96985	-0.0213623	0.000457764	
5.96985	-0.020752	0.000457764	
5.97015	-0.020752	-0.000152588	
5.96985	-0.0210571	-0.000762939	
5.96985	-0.0210571	0.000610352	
5.96985	-0.0210571	0.000915527	
5.96954	-0.0216675	0.000305176	
5.97046	-0.0213623	0.000305176	
5.97015	-0.0204468	0	
5.96924	-0.0210571	0.000610352	
5.96985	-0.0216675	0.000152588	
5.97015	-0.0213623	0.000610352	
5.97046	-0.0210571	0.000762939	
5.96985	-0.0210571	0.000762939	
5.97046	-0.0222778	0.000457764	
5.96985	-0.0244141	0	
5.97015	-0.0262451	-0.000152588	
5.96985	-0.0256348	0	
5.97076	-0.0256348	0	
5.96985	-0.0256348	0.000305176	
5.96985	-0.0262451	0.000305176	
5.96924	-0.0250244	0	
5.97015	-0.0259399	0.000915527	
5.97046	-0.0256348	0.000915527	
5.97015	-0.0256348	0.000915527	
5.97015	-0.0256348	0.000457764	
5.96985	-0.0256348	0.000915527	
5.97015	-0.0256348	0.000457764	
5.97015	-0.0256348	0.000457764	
5.96985	-0.0256348	0.000152588	
5.96954	-0.0265503	0	
5.97015	-0.0250244	0.000457764	
5.96985	-0.0259399	0.000152588	
5.96985	-0.0262451	0.000152588	
5.96985	-0.0262451	0.000915527	
5.97046	-0.0259399	0.000610352	
5.96985	-0.0256348	0.000610352	
5.96985	-0.0265503	0.000457764	
5.97015	-0.0296021	0.000762939	
5.96985	-0.0299072	0.000762939	
5.96924	-0.0305176	0	
5.97015	-0.0305176	0.000762939	
5.96985	-0.0305176	-0.000305176	
5.97015	-0.0308228	-0.000305176	
5.96985	-0.0305176	0.000610352	
5.97015	-0.0308228	0.000457764	
5.96954	-0.0311279	0.000152588	
5.97046	-0.0308228	0	
5.96985	-0.0302124	0.000305176	
5.96954	-0.0311279	0.000762939	
5.96985	-0.0308228	0.000457764	
5.96954	-0.0308228	0.000610352	
5.97015	-0.0308228	0.000457764	
5.97046	-0.0302124	0	
5.97015	-0.0308228	0.000305176	
5.96954	-0.0311279	0.000305176	
5.97046	-0.0311279	-0.000305176	
5.96985	-0.0314331	0	
5.97015	-0.0305176	0	
5.96985	-0.0311279	0.000305176	
5.96954	-0.0311279	-0.000152588	
5.97046	-0.0305176	0.000457764	
5.96985	-0.0311279	0.00106812	
5.96954	-0.0305176	0.00152588	
5.96985	-0.0305176	0.000457764	
5.96954	-0.0311279	0.000457764	
5.96954	-0.0311279	0.000762939	
5.97015	-0.0311279	0.000457764	
5.96985	-0.0341797	0.000457764	
5.97015	-0.0350952	0.000152588	
5.97015	-0.0357056	-0.000152588	
5.96954	-0.0357056	0.000915527	
5.96985	-0.0357056	0.000305176	
5.96954	-0.0354004	0.000152588	
5.96954	-0.0357056	0.000457764	
5.96954	-0.0354004	0.000915527	
5.96985	-0.0354004	0.000610352	
5.97076	-0.0354004	0.000762939	
5.97076	-0.0357056	0.000457764	
5.97015	-0.0354004	0.000610352	
5.96954	-0.0363159	0.000305176	
5.96985	-0.03479	0.000457764	
5.97046	-0.0354004	-0.000152588	
5.96985	-0.0350952	-0.000915527	
5.96985	-0.0354004	0.000457764	
5.96985	-0.0354004	0.000457764	
5.97015	-0.0354004	0	
5.96985	-0.0360107	0	
5.96985	-0.0360107	0.000457764	
5.96954	-0.0350952	0.000915527	
5.96985	-0.0363159	0.000457764	
5.96954	-0.0354004	0.000305176	
5.96954	-0.0357056	0.000457764	
5.97015	-0.0354004	0.000457764	
5.96954	-0.0363159	0.000305176	
5.96985	-0.0354004	0.000152588	
5.96954	-0.0357056	-0.000152588	
5.96985	-0.0354004	0.000152588	
5.96954	-0.0357056	0.000305176	
5.97046	-0.0354004	0.000152588	
5.96954	-0.0357056	0	
5.96985	-0.03479	0.000610352	
5.97015	-0.0357056	0.00106812	
5.96954	-0.0363159	0.000610352	
5.96985	-0.0390625	0.00106812	
5.97046	-0.0402832	0.000305176	
5.97015	-0.0405884	0.000457764	
5.96985	-0.0402832	0.000457764	
5.97015	-0.0408936	0.000457764	
5.96985	-0.0402832	0	
5.96954	-0.0405884	-0.000152588	
5.96985	-0.0411987	0.000762939	
5.96985	-0.0402832	0.000610352	
5.96985	-0.0405884	-0.000152588	
5.96985	-0.039978	0.000915527	
5.96954	-0.0408936	0.000610352	
5.97015	-0.0408936	0.000762939	
5.96985	-0.0393677	0.000457764	
5.96985	-0.039978	0.000457764	
5.96985	-0.0402832	0.000762939	
5.96954	-0.0405884	0.000305176	
5.96985	-0.0408936	0.000457764	
5.96985	-0.0408936	-0.000305176	
5.97015	-0.039978	-0.000457764	
5.96954	-0.0402832	0.000762939	
5.97046	-0.0405884	0.000610352	
5.96954	-0.0405884	0.000457764	
5.97015	-0.0405884	-0.000152588	
5.97046	-0.0405884	0.000457764	
5.97046	-0.0408936	0.000915527	
5.97015	-0.0408936	0.000305176	
5.96954	-0.0402832	0.000457764	
5.96985	-0.0405884	0.000457764	
5.97015	-0.0402832	0.000915527	
5.96954	-0.0411987	0.000610352	
5.97046	-0.0445557	0.000152588	
5.96985	-0.0457764	-0.000152588	
5.97015	-0.0454712	0.000762939	
5.97015	-0.0457764	0.000457764	
5.97107	-0.0457764	0.000152588	
5.97351	-0.0457764	0.000152588	
5.97443	-0.0454712	0.000457764	
5.97504	-0.0454712	0.00106812	
5.97473	-0.0457764	0.0012207	
5.97473	-0.0454712	0.000610352	
5.97473	-0.0457764	0.000305176	
5.97504	-0.045166	0.000457764	
5.97473	-0.045166	0.000610352	
5.97534	-0.045166	0	
5.97534	-0.0460815	0.000152588	
5.97473	-0.0445557	-0.000305176	
5.97534	-0.0454712	0.000610352	
5.97473	-0.0448608	0.000152588	
5.97504	-0.0454712	-0.000152588	
5.97473	-0.045166	0.000762939	
5.97473	-0.045166	0.000915527	
5.97534	-0.045166	0.000610352	
5.97443	-0.0457764	0.000457764	
5.97534	-0.0454712	0.000915527	
5.97473	-0.0457764	0.000762939	
5.97504	-0.045166	0.000152588	
5.97565	-0.0466919	0.000457764	
5.97534	-0.0485229	-0.000305176	
5.97534	-0.0500488	-0.000762939	
5.97534	-0.0500488	0.000457764	
5.97412	-0.050354	0.000762939	
5.97473	-0.0506592	-0.000152588	
5.97443	-0.0506592	0.000305176	
5.97473	-0.0500488	0.00106812	
5.97504	-0.050354	0.000762939	
5.97473	-0.0506592	0.000762939	
5.97534	-0.050354	0.000457764	
5.97412	-0.0497437	0.000610352	
5.97504	-0.0500488	0.000457764	
5.97473	-0.0497437	0.000457764	
5.97443	-0.0509644	0.000457764	
5.97443	-0.050354	-0.000305176	
5.97504	-0.0497437	0.000305176	
5.97504	-0.0509644	0.000305176	
5.97473	-0.050354	0.000305176	
5.97473	-0.0509644	-0.000152588	
5.97504	-0.0506592	0.000762939	
5.97504	-0.050354	0.0012207	
5.97504	-0.0506592	0.0012207	
5.97473	-0.050354	0.000762939	
5.97443	-0.0509644	0.000457764	
5.97473	-0.0540161	0.000305176	
5.97534	-0.055542	0.000457764	
5.97473	-0.055542	0.000152588	
5.97504	-0.055542	0.000152588	
5.97473	-0.0552368	0	
5.97534	-0.055542	0.000610352	
5.97504	-0.0552368	0.000457764	
5.97504	-0.0552368	-0.000152588	
5.97534	-0.0558472	0.000457764	
5.97504	-0.055542	0.000915527	
5.97443	-0.0549316	0.000762939	
5.97534	-0.0552368	0.000457764	
5.97473	-0.0552368	0.000305176	
5.97504	-0.055542	0.000762939	
5.97504	-0.055542	0.000457764	
5.97443	-0.0549316	0.000610352	
5.97473	-0.0549316	-0.000610352	
5.97473	-0.0564575	-0.000457764	
5.97504	-0.0588989	0.000610352	
5.97504	-0.0601196	0.000457764	
5.97473	-0.0604248	0	
5.97443	-0.0598145	0.000457764	
5.97504	-0.0604248	0.000610352	
5.97565	-0.0601196	0.000915527	
5.97534	-0.0604248	0.000610352	
5.97534	-0.0604248	0	
5.97473	-0.0601196	0.000762939	
5.97565	-0.0598145	0.000457764	
5.97504	-0.0601196	0.000457764	
5.97534	-0.0604248	0	
5.97534	-0.0604248	0.000152588	
5.97443	-0.0610352	0.000152588	
5.97504	-0.0643921	0.000305176	
5.97504	-0.0650024	0.000152588	
5.97443	-0.0653076	-0.000152588	
5.97504	-0.0650024	0.000762939	
5.97534	-0.0650024	0.00152588	
5.97504	-0.0646973	0.000915527	
5.97534	-0.0646973	0.000457764	
5.97473	-0.0650024	0.000305176	
5.97565	-0.0653076	0.000610352	
5.97839	-0.065918	0.000152588	
5.97961	-0.0653076	0.000305176	
5.97992	-0.065918	0.000457764	
5.97992	-0.0686646	-0.000152588	
5.98022	-0.0689697	0.000610352	
5.97992	-0.0704956	0.000305176	
5.97992	-0.0698853	0	
5.97931	-0.0698853	0.000610352	
5.97931	-0.0701904	0.00106812	
5.97992	-0.0698853	0.000610352	
5.98022	-0.0704956	0.000762939	
5.98022	-0.0704956	0.000610352	
5.97931	-0.0708008	0.000610352	
5.98022	-0.0738525	0.000457764	
5.97961	-0.0750732	0.000915527	
5.97961	-0.0750732	-0.000305176	
5.97931	-0.0756836	-0.000305176	
5.97961	-0.0744629	0.000610352	
5.97931	-0.0750732	0.000457764	
5.97961	-0.0747681	-0.000152588	
5.97961	-0.0744629	0.000152588	
5.97961	-0.0762939	0.000457764	
5.97992	-0.0784302	0.000915527	
5.97992	-0.0799561	0.000915527	
5.97992	-0.0796509	0.000610352	
5.97961	-0.0793457	0.000610352	
5.97961	-0.0796509	0.000762939	
5.97961	-0.0796509	0.000305176	
5.97961	-0.0793457	0.000305176	
5.97992	-0.0808716	0.000305176	
5.97992	-0.0830078	0.000152588	
5.98022	-0.0839233	0.000152588	
5.97992	-0.0845337	0	
5.98053	-0.085144	0.000305176	
5.97992	-0.0845337	0.000457764	
5.97992	-0.0845337	0.00137329	
5.97961	-0.0845337	0.00137329	
5.97961	-0.0857544	0.000610352	
5.97931	-0.0894165	0.000457764	
5.97931	-0.0894165	0.000762939	
5.97992	-0.0900269	0.000305176	
5.97961	-0.0894165	0.000305176	
5.97961	-0.0891113	0.000152588	
5.98022	-0.0900269	0.000305176	
5.97931	-0.090332	0.000915527	
5.979	-0.0933838	0	
5.97961	-0.0946045	0	
5.97992	-0.0942993	0.000762939	
5.98022	-0.0946045	0.000915527	
5.97961	-0.0942993	0.000610352	
5.97992	-0.0952148	0.000762939	
5.97992	-0.0982666	0.000610352	
5.97931	-0.0991821	0.000610352	
5.97961	-0.0994873	0.000305176	
5.97992	-0.0994873	0.000610352	
5.97961	-0.0997925	-0.000457764	
5.98022	-0.0997925	-0.000762939	
5.97931	-0.102844	0.000610352	
5.97961	-0.104065	0.000762939	
5.97931	-0.10437	0	
5.98022	-0.10437	0.000457764	
5.97992	-0.104065	0.000457764	
5.98053	-0.105286	0.000915527	
5.98358	-0.108032	0.000610352	
5.98419	-0.109253	0.000762939	
5.9845	-0.109253	0.000915527	
5.9848	-0.109253	0.000762939	
5.98511	-0.109253	0.000610352	
5.98419	-0.110779	0	
5.9848	-0.11261	0.000305176	
5.98541	-0.114746	0.000610352	
5.9848	-0.114746	0.000457764	
5.9848	-0.114746	0.000305176	
5.9845	-0.114136	0.000152588	
5.9845	-0.115356	0.000762939	
5.98511	-0.117798	0.0012207	
5.98511	-0.119629	0.000915527	
5.9845	-0.119019	0.000610352	
5.98511	-0.119019	0.000762939	
5.9845	-0.119934	0.000762939	
5.98419	-0.123291	0.000457764	
5.9848	-0.124817	0.000915527	
5.9845	-0.123901	-0.000152588	
5.9848	-0.123596	-0.000152588	
5.98389	-0.123901	0.000610352	
5.98419	-0.124207	0.000152588	
5.98511	-0.127563	0	
5.9848	-0.129089	0.000762939	
5.98511	-0.129089	0.000762939	
5.9848	-0.129395	0.000762939	
5.9848	-0.1297	0.000610352	
5.98511	-0.132446	0.000610352	
5.9848	-0.133667	0.000457764	
5.9848	-0.133972	0.000610352	
5.9848	-0.133972	0.000610352	
5.98419	-0.133972	-0.000305176	
5.9845	-0.137329	-0.000762939	
5.98419	-0.13855	0.000610352	
5.98511	-0.138855	0.000457764	
5.9848	-0.138855	0	
5.9848	-0.140076	0.000305176	
5.98541	-0.143433	0.000610352	
5.9848	-0.143738	0.000915527	
5.9845	-0.144043	0.000610352	
5.98511	-0.143127	0.000610352	
5.9848	-0.144653	0.000610352	
5.9848	-0.1474	0.000610352	
5.98511	-0.148621	0.000457764	
5.9845	-0.148315	0.000305176	
5.9848	-0.148621	0.000152588	
5.98511	-0.148621	0	
5.9848	-0.150146	0.000152588	
5.98511	-0.151978	0.000305176	
5.9848	-0.153198	-0.000152588	
5.9845	-0.153503	0.000305176	
5.9848	-0.153809	0.00106812	
5.98511	-0.154114	0.000915527	
5.98816	-0.15686	0.000915527	
5.98907	-0.158081	0.000305176	
5.98938	-0.158386	0.00106812	
5.98969	-0.158691	0.000610352	
5.98969	-0.158691	0.000305176	
5.98999	-0.161438	0.000152588	
5.98938	-0.162659	0	
5.98999	-0.162659	0.000762939	
5.98907	-0.161743	0.000152588	
5.98969	-0.163879	-0.000152588	
5.9903	-0.167236	0.000610352	
5.98999	-0.166931	0.000915527	
5.98969	-0.167847	0.000305176	
5.98907	-0.167847	0.000610352	
5.98969	-0.167847	0.000457764	
5.98969	-0.168457	0.000762939	
5.98969	-0.171509	0.000762939	
5.98999	-0.172729	0.000762939	
5.9903	-0.172424	-0.000152588	
5.98999	-0.173035	-0.000762939	
5.98907	-0.17395	0.000457764	
5.98938	-0.176392	0.000457764	
5.98969	-0.177307	0.000305176	
5.98907	-0.177612	0	
5.98969	-0.177917	0.000762939	
5.98999	-0.178223	0.000610352	
5.98999	-0.179138	0.000610352	
5.98969	-0.181885	0.000457764	
5.9903	-0.183105	0.000457764	
5.98999	-0.183105	0.000610352	
5.9906	-0.1828	0.000762939	
5.98999	-0.183411	0	
5.98999	-0.186462	0.000152588	
5.98999	-0.187378	0	
5.98999	-0.187683	0.000152588	
5.9903	-0.187378	0	
5.98938	-0.187988	0	
5.98938	-0.187988	0.000457764	
5.98938	-0.191345	0.00183105	
5.98999	-0.192566	0.000915527	
5.98969	-0.192566	0.000457764	
5.98907	-0.192261	0.000305176	
5.9903	-0.192566	0.00106812	
5.98999	-0.192566	0.000457764	
5.98969	-0.193481	0.000305176	
5.98999	-0.196533	-0.000152588	
5.98969	-0.197144	-0.000305176	
5.9903	-0.197449	0.000457764	
5.98999	-0.197449	-0.000152588	
5.98999	-0.197449	-0.000152588	
5.9903	-0.198364	0.000610352	
5.99365	-0.201416	0.000915527	
5.99457	-0.202026	0.000610352	
5.99518	-0.202942	0.000457764	
5.99518	-0.202332	0.000762939	
5.99518	-0.202942	0.000915527	
5.99426	-0.202332	0.000305176	
5.99487	-0.203247	0.000762939	
5.99457	-0.205994	-0.000305176	
5.99518	-0.207825	-0.000152588	
5.99518	-0.206909	0.000457764	
5.99518	-0.206909	0.000457764	
5.99548	-0.207825	0	
5.99487	-0.207214	0.000305176	
5.99457	-0.20813	0.000915527	
5.99487	-0.211487	0.000915527	
5.99487	-0.212097	0.000610352	
5.99457	-0.212402	0.00106812	
5.99457	-0.212097	0.000457764	
5.99487	-0.211792	0.000915527	
5.99426	-0.212402	0.000305176	
5.99457	-0.212708	0.000152588	
5.99457	-0.212708	0.000152588	
5.99548	-0.215454	0.000305176	
5.99487	-0.21637	0.000305176	
5.99487	-0.216675	0	
5.99426	-0.216675	-0.000152588	
5.99426	-0.217285	0.000610352	
5.99518	-0.217285	0.0012207	
5.99548	-0.21698	0.000915527	
5.99457	-0.217285	0.000457764	
5.99457	-0.217896	0.000457764	
5.99518	-0.220947	0.000762939	
5.99426	-0.221863	0.000915527	
5.99487	-0.221863	-0.000152588	
5.99548	-0.222473	0	
5.99518	-0.222778	-0.000152588	
5.99457	-0.222168	0.000762939	
5.99457	-0.221558	0.000457764	
5.99487	-0.221863	0.000152588	
5.99457	-0.223083	0.000610352	
5.99457	-0.226135	0.000915527	
5.99396	-0.227661	0.000610352	
5.99487	-0.227051	0.000610352	
5.99457	-0.227051	0.000610352	
5.99457	-0.227356	0.000457764	
5.99487	-0.226746	0.000152588	
5.99487	-0.226746	0.000457764	
5.99426	-0.22644	-0.000305176	
5.99609	-0.22644	-0.000610352	
5.99487	-0.227661	0.000457764	
5.99457	-0.230713	0.000305176	
5.99396	-0.231934	0.000152588	
5.99457	-0.231323	0.000152588	
5.99548	-0.232239	0.000762939	
5.99792	-0.232544	0.000915527	
6.00006	-0.231934	0.000305176	
5.99976	-0.232239	0.000457764	
6.00006	-0.231934	0.000457764	
5.99945	-0.231934	0.000305176	
5.99976	-0.231323	0.000457764	
5.99945	-0.231018	-0.000305176	
5.99945	-0.233459	0.000305176	
5.99976	-0.23468	0.000152588	
6.00037	-0.237427	0.000305176	
5.99945	-0.236206	0.000610352	
6.00006	-0.236511	-0.000152588	
5.99976	-0.236816	0.000915527	
5.99976	-0.235901	0.000915527	
5.99945	-0.235901	0.00106812	
5.99915	-0.236511	0.000457764	
5.99945	-0.236206	0.000610352	
6.00037	-0.236816	0.000305176	
5.99945	-0.236816	0.000457764	
6.00006	-0.236511	0.000152588	
5.99945	-0.236511	0.000152588	
5.99976	-0.236816	0.000152588	
5.99976	-0.240479	0.000457764	
5.99976	-0.241089	0.000457764	
5.99976	-0.241699	0.000305176	
6.00006	-0.241394	0.00106812	
5.99945	-0.241394	0.000762939	
5.99976	-0.241089	0.000457764	
6.00006	-0.241699	0.000762939	
5.99976	-0.241699	0.000457764	
5.99915	-0.241089	0.000610352	
5.99945	-0.241699	0.000305176	
5.99976	-0.241699	0.000762939	
5.99884	-0.241699	-0.000762939	
5.99945	-0.242004	-0.000457764	
5.99945	-0.241089	0.000610352	
5.99976	-0.241089	0.000152588	
6.00006	-0.242004	0.000305176	
5.99976	-0.245056	-0.000152588	
5.99945	-0.246277	0.000610352	
5.99915	-0.246277	0.000762939	
5.99976	-0.246887	0.000152588	
6.00006	-0.246582	0.000610352	
5.99976	-0.245972	0.000457764	
5.99976	-0.246582	0.000152588	
5.99976	-0.246277	0.000457764	
5.99976	-0.245972	-0.000152588	
6.00006	-0.246887	0.000305176	
5.99915	-0.246277	0.000152588	
5.99884	-0.245972	0.000305176	
5.99945	-0.245972	0.000305176	
5.99976	-0.245972	0	
5.99945	-0.246277	0.000610352	
5.99945	-0.246582	0.0012207	
5.99976	-0.246582	0.00106812	
5.99976	-0.246277	0.000457764	
5.99915	-0.246277	0.000762939	
6.00037	-0.246277	0.000305176	
6.0025	-0.246887	0.000610352	
6.00433	-0.247192	0.000305176	
6.00403	-0.246277	0.000457764	
6.00433	-0.247803	0	
6.00433	-0.249634	0.000152588	
6.00464	-0.250854	0.000152588	
6.00494	-0.250854	0	
6.00433	-0.25116	0.000457764	
6.00433	-0.251465	0.000915527	
6.00433	-0.251465	0.000762939	
6.00464	-0.250854	0.000762939	
6.00464	-0.25116	0.000305176	
6.00464	-0.25116	0.000457764	
6.00464	-0.251465	0.000457764	
6.00494	-0.25116	0.000610352	
6.00372	-0.251465	-0.000152588	
6.00403	-0.25116	-0.000457764	
6.00464	-0.251465	0.000762939	
6.00433	-0.25116	0.000305176	
6.00372	-0.25116	0.000152588	
6.00433	-0.25116	0.000305176	
6.00403	-0.25116	0.000305176	
6.00433	-0.25116	0.000457764	
6.00464	-0.251465	0.000457764	
6.00433	-0.251465	0.000457764	
6.00525	-0.251465	0.000762939	
6.00372	-0.251465	0.000305176	
6.00403	-0.25116	0.000610352	
6.00464	-0.25177	-0.000305176	
6.00403	-0.251465	0.000152588	
6.00464	-0.25116	0.000152588	
6.00494	-0.25116	0.000305176	
6.00433	-0.251465	0.000305176	
6.00464	-0.251465	0	
6.00403	-0.251465	0.000305176	
6.00403	-0.250854	0.00167847	
6.00433	-0.25116	0.0012207	
6.00403	-0.25116	0.000457764	
6.00433	-0.251465	0.000762939	
6.00433	-0.25116	0.000610352	
6.00433	-0.250854	0.000457764	
6.00403	-0.25177	-0.000152588	
6.00464	-0.250549	0.000305176	
6.00433	-0.25116	0	
6.00464	-0.250854	0.000457764	
6.00433	-0.251465	0.000305176	
6.00433	-0.251465	0	
6.00403	-0.250854	0.000762939	
6.00525	-0.251465	0.000915527	
6.00403	-0.251465	0.000457764	
6.00464	-0.25177	0.000457764	
6.00464	-0.250549	0.000610352	
6.00433	-0.251465	0.000762939	
6.00464	-0.251465	0.000762939	
6.00433	-0.250854	0.000915527	
6.00433	-0.251465	-0.000152588	
6.008	-0.25116	-0.000457764	
6.00922	-0.251465	0.000457764	
6.00922	-0.250854	0.000457764	
6.00891	-0.250854	0.000152588	
6.00891	-0.251465	0.000152588	
6.00922	-0.249634	0.000762939	
6.00983	-0.247498	0.000762939	
6.00952	-0.246887	0.000457764	
6.00952	-0.245972	0.000457764	
6.00952	-0.245972	0.000610352	
6.00983	-0.246277	0.000457764	
6.00922	-0.246887	0.000152588	
6.00922	-0.246887	0	
6.00922	-0.246277	0.000457764	
6.00952	-0.246277	0.000152588	
6.00922	-0.246582	0.000305176	
6.00922	-0.246582	0.000457764	
6.00952	-0.246887	-0.000152588	
6.00952	-0.245972	0.000610352	
6.00952	-0.246582	0.000915527	
6.00922	-0.246277	0.0012207	
6.00891	-0.246277	0.000762939	
6.00952	-0.246887	0.000762939	
6.00952	-0.246277	0.000610352	
6.00891	-0.246582	0.000762939	
6.00952	-0.245667	0	
6.00952	-0.246582	-0.000152588	
6.00952	-0.246887	-0.000152588	
6.00952	-0.245056	0.000610352	
6.00922	-0.24231	0.000152588	
6.00891	-0.242004	0.000152588	
6.00983	-0.241394	0.000457764	
6.00891	-0.241394	0.000762939	
6.00891	-0.241089	0.000305176	
6.00922	-0.240784	0.000915527	
6.00983	-0.241699	0.000457764	
6.00922	-0.240784	0.000762939	
6.00891	-0.241699	0.000457764	
6.00861	-0.241394	0.000457764	
6.01013	-0.241394	-0.000610352	
6.00922	-0.241089	-0.000305176	
6.00891	-0.241089	0.000457764	
6.00952	-0.241089	0.000457764	
6.00952	-0.241394	0.000305176	
6.00952	-0.241394	0.000152588	
6.00952	-0.239563	0.000762939	
6.00952	-0.238342	0.000762939	
6.00983	-0.237122	0.000305176	
6.00952	-0.236206	0.000457764	
6.00952	-0.236511	0.000762939	
6.00952	-0.236206	0.000305176	
6.00922	-0.236511	0.000305176	
6.00861	-0.236511	-0.000305176	
6.00952	-0.237122	0	
6.00922	-0.236511	0	
6.00952	-0.236511	0	
6.00983	-0.236511	0	
6.01257	-0.236816	0	
6.0141	-0.235901	0.000610352	
6.01563	-0.236816	0.000762939	
6.01379	-0.234985	0.000915527	
6.0141	-0.232544	0.000762939	
6.0144	-0.231628	0.000305176	
6.0141	-0.231628	0.000915527	
6.01471	-0.231323	0.000305176	
6.01379	-0.231628	-0.000152588	
6.0144	-0.231323	0.000152588	
6.0141	-0.231934	-0.000152588	
6.0141	-0.231934	0.000610352	
6.0144	-0.231934	0	
6.01471	-0.232239	0.000152588	
6.0141	-0.231934	0.000915527	
6.01471	-0.232239	0.0012207	
6.0141	-0.231018	0.000457764	
6.0144	-0.228577	0.000457764	
6.0144	-0.226746	0.000762939	
6.0144	-0.226135	0.000457764	
6.0141	-0.227051	0.000305176	
6.0144	-0.227356	0.000457764	
6.0141	-0.226746	-0.000610352	
6.0141	-0.227051	-0.000152588	
6.0144	-0.226746	0.000457764	
6.0141	-0.226746	0.000152588	
6.0141	-0.227051	0.000152588	
6.0144	-0.226746	0.000305176	
6.0141	-0.225525	0.000762939	
6.0144	-0.223389	0.000762939	
6.0144	-0.222168	0.000457764	
6.01379	-0.222168	0.000305176	
6.0144	-0.221863	0.000762939	
6.01349	-0.221863	0.000152588	
6.0144	-0.221558	0.000152588	
6.01379	-0.222473	-0.000457764	
6.0144	-0.222168	0	
6.0144	-0.222473	0.000152588	
6.0141	-0.222473	0.000305176	
6.0141	-0.222778	0.000152588	
6.0141	-0.221558	-0.000152588	
6.0141	-0.217896	0.000915527	
6.0141	-0.21698	0.00167847	
6.0144	-0.217285	0.00106812	
6.0141	-0.21698	0.000457764	
6.0144	-0.21759	0.000305176	
6.01379	-0.21698	0.000457764	
6.0144	-0.21637	0.000762939	
6.0144	-0.21698	0	
6.0141	-0.21759	0.000305176	
6.0144	-0.216064	0.000152588	
6.0144	-0.213623	0.000610352	
6.0141	-0.213013	-0.000152588	
6.01379	-0.211792	0.000152588	
6.0141	-0.212097	0.000457764	
6.0144	-0.212097	0.000762939	
6.01501	-0.212708	0.000457764	
6.01471	-0.211792	0.000305176	
6.01471	-0.211792	0.000610352	
6.01471	-0.212097	0.000762939	
6.01471	-0.212402	0.000457764	
6.0141	-0.210876	0.000457764	
6.0141	-0.208435	-0.000457764	
6.01349	-0.207214	-0.000152588	
6.0144	-0.207214	0.000457764	
6.01379	-0.20752	0.000457764	
6.0144	-0.20752	0.000152588	
6.0144	-0.206909	0.000457764	
6.0144	-0.20752	0.000915527	
6.0144	-0.206909	0.000610352	
6.01379	-0.207214	0.000457764	
6.01379	-0.206604	0.000305176	
6.0144	-0.203552	0.000762939	
6.01471	-0.202332	-0.000152588	
6.01471	-0.202637	0.000610352	
6.0144	-0.202637	-0.000152588	
6.0144	-0.202942	0	
6.0141	-0.202026	0	
6.0141	-0.202637	0.000152588	
6.01471	-0.202942	0	
6.0144	-0.201721	0	
6.01532	-0.198364	0.000762939	
6.01837	-0.197144	0.00106812	
6.01898	-0.196838	0.000762939	
6.01929	-0.197449	0.000457764	
6.01898	-0.197144	0.000610352	
6.01929	-0.197449	0.000762939	
6.01929	-0.197144	0.000457764	
6.01868	-0.197449	0.000305176	
6.01929	-0.196533	0	
6.01868	-0.194092	0	
6.01929	-0.192871	0.000457764	
6.01929	-0.192566	0.000305176	
6.01898	-0.192871	0.000305176	
6.01898	-0.19165	0.000610352	
6.01837	-0.192261	0.00137329	
6.01898	-0.192261	0.000305176	
6.01929	-0.192261	0.000610352	
6.01929	-0.192261	0.000457764	
6.01929	-0.189209	0.000915527	
6.01898	-0.187988	0.000305176	
6.01898	-0.187988	0.000457764	
6.01929	-0.187683	-0.000305176	
6.01898	-0.187988	-0.000152588	
6.01929	-0.187378	0.000457764	
6.01929	-0.187988	0.000457764	
6.01929	-0.186157	0.000152588	
6.01868	-0.184021	0.000457764	
6.01868	-0.183105	0.000610352	
6.01929	-0.182495	0.000762939	
6.01898	-0.183105	0.000305176	
6.01959	-0.18219	0.000762939	
6.01898	-0.1828	0.000915527	
6.01898	-0.183411	-0.000152588	
6.01959	-0.18219	0.000457764	
6.01929	-0.179138	-0.000152588	
6.01868	-0.178223	0.000457764	
6.01929	-0.177917	-0.000152588	
6.01837	-0.177612	0	
6.01898	-0.178223	0.000152588	
6.01898	-0.177612	0.000152588	
6.01929	-0.176697	0.000610352	
6.01929	-0.173645	0.00137329	
6.01868	-0.172729	0.000610352	
6.01929	-0.173035	0.000610352	
6.01929	-0.172729	0.000762939	
6.01929	-0.173035	0.000610352	
6.01898	-0.172729	0.000762939	
6.01898	-0.172119	0.000152588	
6.01929	-0.168762	0.000457764	
6.01898	-0.168457	-0.000152588	
6.01929	-0.168152	0.000152588	
6.01959	-0.167542	0	
6.01898	-0.167847	0.000305176	
6.01929	-0.167236	0.000762939	
6.01929	-0.163574	0.00106812	
6.01898	-0.162964	0.000457764	
6.01959	-0.162354	0.000610352	
6.01898	-0.162964	0.000457764	
6.01959	-0.162964	0.000457764	
6.01898	-0.163269	0.000457764	
6.01898	-0.161438	0.000305176	
6.01929	-0.159607	0	
6.01929	-0.158386	-0.000152588	
6.01898	-0.158386	0.000610352	
6.01959	-0.158997	0.000610352	
6.01898	-0.157166	0.000152588	
6.01868	-0.154419	0.000610352	
6.01929	-0.152893	0.000610352	
6.01898	-0.153503	0.000457764	
6.01929	-0.153198	0.000305176	
6.01929	-0.153198	0.000610352	
6.0199	-0.152893	0.000610352	
6.01959	-0.149841	0.000152588	
6.01929	-0.148621	0.000457764	
6.01929	-0.14801	-0.000152588	
6.01898	-0.148315	0	
6.01959	-0.147705	0	
6.01898	-0.144653	0.000457764	
6.01898	-0.143433	0	
6.01898	-0.144043	0	
6.01929	-0.143433	0.000457764	
6.01898	-0.142517	0.00152588	
6.01959	-0.140076	0.000610352	
6.0199	-0.13916	0.000610352	
6.01868	-0.138245	0.000610352	
6.01868	-0.13916	0.000762939	
6.01929	-0.137939	0.000610352	
6.01898	-0.134888	0	
6.01959	-0.134277	0.000152588	
6.01929	-0.134583	0	
6.01868	-0.132751	0.000457764	
6.01868	-0.130005	0.000152588	
6.01959	-0.129089	0.000457764	
6.01898	-0.128174	0.000915527	
6.01929	-0.128784	0.000762939	
6.01929	-0.128174	0.000457764	
6.01898	-0.124817	0.000915527	
6.01898	-0.123901	0.000610352	
6.01898	-0.123901	0.000457764	
6.01898	-0.122986	0.000305176	
6.01898	-0.120239	0.000305176	
6.01898	-0.119629	-0.000610352	
6.01929	-0.119324	-0.000152588	
6.01929	-0.118103	0.000915527	
6.01868	-0.115051	0.000305176	
6.01868	-0.114441	0	
6.01868	-0.113831	0.000152588	
6.01929	-0.109253	0.000762939	
6.01898	-0.109253	0.000915527	
6.01929	-0.109558	0.000610352	
6.01929	-0.108337	0.000610352	
6.01929	-0.105286	0.000457764	
6.01898	-0.10437	0.000152588	
6.01959	-0.103455	0.000152588	
6.01959	-0.100403	-0.000152588	
6.01868	-0.0997925	0	
6.01898	-0.100098	0.000305176	
6.01929	-0.098877	0	
6.01929	-0.0958252	0.000457764	
6.01929	-0.0946045	0	
6.01929	-0.093689	0.000915527	
6.01959	-0.0909424	0.0012207	
6.01898	-0.0894165	0.000762939	
6.01898	-0.088501	0.000762939	
6.01837	-0.0863647	0.000915527	
6.01593	-0.0845337	0.000152588	
6.0144	-0.085144	0.000457764	
6.0141	-0.0836182	-0.000152588	
6.01379	-0.0808716	0	
6.0144	-0.0802612	0	
6.0144	-0.0784302	0.000610352	
6.0144	-0.0759888	0.000152588	
6.0144	-0.0750732	0	
6.0141	-0.0732422	0.000915527	
6.01379	-0.071106	0.00106812	
6.0141	-0.0689697	0.000457764	
6.0144	-0.065918	0.000457764	
6.0141	-0.0653076	0.000915527	
6.01501	-0.0643921	0.000610352	
6.0144	-0.0613403	0.000610352	
6.0144	-0.0601196	0.000305176	
6.0144	-0.0598145	-0.000305176	
6.0141	-0.0564575	-0.000305176	
6.0144	-0.0552368	0.000305176	
6.0144	-0.0543213	0.000152588	
6.0141	-0.0509644	0.000610352	
6.0144	-0.0500488	0.000305176	
6.0141	-0.0466919	0.000762939	
6.01471	-0.0454712	0.000610352	
6.0144	-0.045166	0.000610352	
6.01379	-0.0418091	0.000610352	
6.01471	-0.0405884	0.000457764	
6.01471	-0.0387573	0.000457764	
6.01471	-0.0360107	0	
6.0144	-0.03479	-0.000152588	
6.0144	-0.0314331	0.000152588	
6.01379	-0.0305176	0	
6.0144	-0.0299072	0.000152588	
6.01471	-0.0274658	0.000305176	
6.01501	-0.0247192	0.000915527	
6.01501	-0.0213623	0.000457764	
6.0141	-0.0164795	0.0012207	
6.0144	-0.015564	0.000610352	
6.0141	-0.0149536	0.000152588	
6.01379	-0.012207	0.000762939	
6.0144	-0.00946045	0.000305176	
6.01471	-0.00762939	0.000610352	
6.01471	-0.00488281	0	
6.01379	-0.00274658	0.000152588	
6.01471	-0.0012207	0.000457764	
6.0141	-0.000305176	0.000152588	
6.0144	0.00213623	0.000305176	
6.01471	0.00427246	0	
6.01501	0.00732422	0.000762939	
6.0144	0.0088501	0.000915527	
6.01471	0.0119019	0.000610352	
6.0144	0.0146484	0.000457764	
6.0144	0.0170898	0.000457764	
6.01501	0.0180054	0.000152588	
6.0144	0.0189209	0.000610352	
6.0144	0.022583	-0.000152588	
6.01471	0.0231934	-0.000457764	
6.01379	0.0271606	0	
6.0144	0.0286865	0.000457764	
6.0144	0.0317383	0.000152588	
6.01501	0.0335693	0.000305176	
6.0141	0.0366211	0.000457764	
6.01471	0.038147	0.0012207	
6.0141	0.0405884	0.000762939	
6.01471	0.043335	0.00106812	
6.01471	0.0463867	0.000305176	
6.0141	0.0485229	0.000457764	
6.01379	0.0515747	0.000305176	
6.0144	0.0531006	0.000305176	
6.0144	0.0561523	0	
6.0144	0.0570679	0	
6.01471	0.0585938	0	
6.0141	0.0610352	0.000610352	
6.0141	0.0631714	0.000457764	
6.0144	0.065918	0.000152588	
6.0144	0.0683594	0.000457764	
6.0141	0.071106	0.00106812	
6.0141	0.072937	0.000762939	
6.0141	0.0762939	0.000305176	
6.0141	0.0778198	0.000915527	
6.01501	0.0805664	0.000152588	
6.0144	0.0820923	0.000610352	
6.01471	0.0854492	0.000305176	
6.0144	0.0863647	0.000152588	
6.01471	0.0897217	0.000457764	
6.0141	0.0918579	0.000457764	
6.01471	0.0949097	0.000152588	
6.01379	0.0970459	0.000152588	
6.01105	0.100403	0.0012207	
6.00952	0.101624	0.000915527	
6.00983	0.10437	0.000610352	
6.00952	0.107117	0.000152588	
6.00922	0.109863	0.000762939	
6.00922	0.111084	0.000457764	
6.00922	0.113831	0.000762939	
6.00983	0.116577	-0.000152588	
6.00922	0.119629	-0.000305176	
6.00922	0.12085	-0.000152588	
6.00952	0.124207	0.000305176	
6.00891	0.126953	0.000305176	
6.00922	0.129395	0.000457764	
6.00922	0.131226	0.000152588	
6.00952	0.133972	0.000915527	
6.00952	0.135803	0.000610352	
6.00952	0.138855	0.0012207	
6.00952	0.142212	0.000610352	
6.00952	0.144653	0.000762939	
6.00922	0.145874	0.000152588	
6.00952	0.148315	0.000305176	
6.00952	0.151367	0.000152588	
6.00952	0.153809	0.000152588	
6.00983	0.155945	0.000610352	
6.00952	0.158081	0	
6.00922	0.160828	0	
6.00922	0.163574	0.000457764	
6.00952	0.164795	0.000610352	
6.00891	0.167847	0.000915527	
6.00922	0.170288	0.000762939	
6.00922	0.173035	0.000610352	
6.00891	0.173645	0.000762939	
6.00922	0.175171	0.000457764	
6.00952	0.177917	0.000457764	
6.00922	0.179749	0	
6.00891	0.182495	0	
6.00861	0.184937	0.000457764	
6.00952	0.187988	0.000305176	
6.00891	0.189209	0.000305176	
6.00952	0.193481	0.000152588	
6.00922	0.195007	0.000762939	
6.00922	0.198059	0.00106812	
6.00952	0.200195	0.000305176	
6.01013	0.202637	0.000610352	
6.00952	0.204773	0.000305176	
6.00952	0.20752	0.000305176	
6.00922	0.209961	0.000915527	
6.00952	0.212708	0.000305176	
6.00861	0.213623	-0.000305176	
6.00952	0.213928	-0.000152588	
6.00891	0.217896	0.000762939	
6.01013	0.219421	0	
6.00952	0.221863	0.000152588	
6.00922	0.223999	0.000457764	
6.00891	0.226746	0.000762939	
6.00952	0.229492	0.000610352	
6.00922	0.232544	0.000610352	
6.00922	0.232849	0.000305176	
6.00952	0.235291	0.000762939	
6.00861	0.236511	0.000152588	
6.00586	0.238647	0.000762939	
6.00494	0.24231	0	
6.00464	0.24353	0.000152588	
6.00464	0.246887	0	
6.00433	0.248413	0.000152588	
6.00403	0.252075	0.000305176	
6.00464	0.25238	0.000610352	
6.00403	0.254211	0.000457764	
6.00525	0.256653	0.00106812	
6.00464	0.258484	0.000610352	
6.00403	0.261536	0.000305176	
6.00372	0.262451	0.000457764	
6.00372	0.263062	0.000610352	
6.00433	0.266418	0.000305176	
6.00464	0.26886	-0.000152588	
6.00433	0.271606	-0.000152588	
6.00464	0.272827	0.000457764	
6.00464	0.273438	0	
6.00525	0.276489	0.000305176	
6.00433	0.278625	0.000305176	
6.00494	0.281677	0.000762939	
6.00403	0.281982	0.00106812	
6.00464	0.283813	0.000610352	
6.00464	0.286255	0.000305176	
6.00403	0.288391	0.000762939	
6.00403	0.291443	0.000305176	
6.00464	0.292358	0.000762939	
6.00403	0.293579	0.000152588	
6.00433	0.296021	-0.000457764	
6.00464	0.297241	0	
6.00433	0.298462	0.000762939	
6.00403	0.301514	0.000305176	
6.00464	0.302734	0.000152588	
6.00403	0.302734	0.000152588	
6.00433	0.306396	0.0012207	
6.00433	0.307922	0.000457764	
6.00403	0.311584	0.000762939	
6.00464	0.312195	0.000305176	
6.00433	0.3125	0.000762939	
6.00372	0.315247	0	
6.00433	0.316162	0.000457764	
6.00403	0.317993	-0.000152588	
6.00403	0.320129	0.000457764	
6.00464	0.32074	0.000152588	
6.00464	0.32196	0.000152588	
6.00433	0.325012	0.000305176	
6.00403	0.325623	0.000610352	
6.00433	0.327454	0.000610352	
6.00433	0.329895	0.0012207	
6.00433	0.331421	0.000305176	
6.00464	0.330811	0.000305176	
6.00464	0.332642	0.000762939	
6.00525	0.335083	0.000610352	
6.00433	0.335999	0.000305176	
6.00342	0.337524	0	
6.00067	0.339661	0	
5.99976	0.340576	0.000457764	
5.99945	0.342407	0.000152588	
5.99976	0.344849	0	
5.99976	0.34668	0	
5.99945	0.346375	0.000610352	
5.99976	0.34729	0.000915527	
5.99945	0.349731	0.000305176	
6.00006	0.350952	0.000762939	
5.99915	0.351257	0.000610352	
6.00006	0.351868	0.000152588	
5.99976	0.355225	0.000610352	
5.99854	0.355225	0.000152588	
5.99976	0.356445	-0.000457764	
5.99915	0.359802	-0.000152588	
5.99884	0.361328	0.000457764	
5.99945	0.360718	0.000152588	
5.99976	0.360413	0	
5.99945	0.361633	0.000305176	
5.99945	0.364075	0.000762939	
5.99915	0.365295	0.000610352	
6.00037	0.36499	0.000915527	
5.99976	0.366821	0.000457764	
5.99945	0.370178	0.000610352	
5.99945	0.370178	0.000152588	
5.99976	0.371704	0.000305176	
5.99945	0.371399	0.000457764	
6.00006	0.374146	0.000457764	
5.99945	0.374756	0.000305176	
6.00006	0.375366	0.000762939	
5.99976	0.375366	0.000152588	
5.99976	0.375977	0.000305176	
5.99976	0.379639	0.000915527	
5.99976	0.380554	0.000915527	
5.99945	0.380554	0.000762939	
6.00006	0.380859	0.000457764	
5.99945	0.381775	0.000457764	
6.00006	0.384216	0.000457764	
5.99945	0.385742	0.000457764	
5.99915	0.385437	0	
5.99915	0.385742	0	
5.99915	0.384827	0.000152588	
5.99915	0.386047	0	
5.99976	0.389404	0.000457764	
6.00006	0.390625	0	
5.99945	0.39032	0.000915527	
6.00006	0.39032	0.000915527	
6.00006	0.390625	0.000610352	
5.99915	0.39093	0.000610352	
5.99915	0.393982	0.000610352	
5.99976	0.395508	0.000152588	
5.99945	0.394592	0.000762939	
5.99976	0.394897	0.000152588	
5.99945	0.394897	-0.000610352	
5.99976	0.394897	0	
5.99976	0.394897	0.000457764	
5.99823	0.395508	0.000457764	
5.99609	0.398865	0.000152588	
5.99518	0.399475	0.000305176	
5.99487	0.400391	0.000762939	
5.99457	0.39978	0.000762939	
5.99487	0.39978	0.000457764	
5.99487	0.400391	0.000305176	
5.99457	0.39978	0.000610352	
5.99426	0.400696	0.000152588	
5.99457	0.400696	0.000305176	
5.99426	0.403748	0.000152588	
5.99518	0.404358	0	
5.99457	0.405273	0.000152588	
5.99487	0.404968	0	
5.99487	0.404968	0.000305176	
5.99487	0.404358	0.000457764	
5.99457	0.404663	0.000915527	
5.99487	0.405273	0.00167847	
5.99518	0.404663	0.000457764	
5.99457	0.404663	0.000610352	
5.99487	0.405273	0.000915527	
5.99426	0.404968	0.000457764	
5.99426	0.405273	0.000610352	
5.99457	0.40863	0	
5.99396	0.409546	0.000305176	
5.99487	0.409851	0.000457764	
5.99457	0.409241	0.000305176	
5.99487	0.410156	0.000152588	
5.99487	0.409546	0.000305176	
5.99487	0.409851	0.000610352	
5.99457	0.409241	0.00106812	
5.99487	0.409241	0.000610352	
5.99426	0.410461	0.000610352	
5.99426	0.410156	0.000610352	
5.99487	0.409241	0.000305176	
5.99426	0.409851	0.000762939	
5.99457	0.40863	0.000152588	
5.99457	0.410156	-0.000457764	
5.99426	0.409851	0.000305176	
5.99457	0.409241	0.000915527	
5.99426	0.409546	0.000305176	
5.99548	0.409546	0.000305176	
5.99457	0.409851	0	
5.99457	0.409241	0.00106812	
5.99426	0.409546	0.000305176	
5.99426	0.409546	0.000610352	
5.99457	0.410156	0.000762939	
5.99457	0.410461	0.000915527	
5.99426	0.409851	0	
5.99487	0.410156	0.000152588	
5.99426	0.410156	0	
5.99487	0.409546	-0.000152588	
5.99457	0.409241	0.000305176	
5.99518	0.409851	-0.000152588	
5.99487	0.410156	0	
5.99487	0.410156	0.000915527	
5.99457	0.410156	0.00106812	
5.99396	0.410156	0.000610352	
5.99487	0.410156	0.000457764	
5.99457	0.410156	0.000610352	
5.99518	0.409241	0.000762939	
5.99426	0.406189	0.000457764	
5.99487	0.404358	0.000305176	
5.99396	0.405273	0	
5.99396	0.404358	0	
5.99457	0.404663	0.000457764	
5.99396	0.405273	0.000305176	
5.99457	0.404663	0.000305176	
5.99396	0.404968	0.000152588	
5.99152	0.404663	0.000762939	
5.98999	0.404358	0.000915527	
5.9903	0.404968	0.000610352	
5.98999	0.404968	0.000762939	
5.9903	0.404358	0.000457764	
5.98969	0.401001	0.000305176	
5.98938	0.39978	0.000762939	
5.98969	0.400391	-0.000152588	
5.98999	0.39917	-0.000457764	
5.98999	0.39978	0.000152588	
5.98969	0.400391	0.000457764	
5.98999	0.39978	0.000152588	
5.98969	0.39978	0.000610352	
5.98969	0.39856	0	
5.98969	0.396729	0.000915527	
5.98938	0.394897	0.000457764	
5.98969	0.394592	0.000457764	
5.98999	0.394897	0.000457764	
5.98999	0.394592	0.000457764	
5.98969	0.394897	0.000305176	
5.98969	0.395508	0.000305176	
5.98999	0.393982	-0.000152588	
5.9903	0.391846	0.000305176	
5.98999	0.390625	0.000152588	
5.98999	0.39032	0.000305176	
5.98877	0.390015	0	
5.98999	0.39093	0.000152588	
5.9906	0.39093	0.000915527	
5.98999	0.389709	0.0012207	
5.98999	0.386353	0.000762939	
5.98999	0.385742	0.000457764	
5.98969	0.385437	0.000915527	
5.98999	0.386047	0	
5.98999	0.385132	0.000915527	
5.98999	0.385437	-0.000152588	
5.98877	0.38147	-0.000152588	
5.98999	0.380249	0.000305176	
5.9903	0.380249	0.000305176	
5.9903	0.380554	0.000152588	
5.9903	0.379944	0.000152588	
5.9903	0.379028	0.000762939	
5.98999	0.376282	0.00106812	
5.98938	0.375977	0.000457764	
5.98969	0.375366	0.000457764	
5.98999	0.375061	0.000610352	
5.98999	0.374451	0.000152588	
5.98969	0.372009	0.000762939	
5.9903	0.370789	0	
5.98999	0.370789	-0.000457764	
5.98999	0.370483	0.000152588	
5.98938	0.370178	0.000610352	
5.98969	0.366821	0.000457764	
5.98999	0.365601	0.000610352	
5.98999	0.365295	0.000305176	
5.98969	0.366516	0.000915527	
5.98999	0.36499	0.000457764	
5.98969	0.361938	0.000915527	
5.98907	0.361328	0.000152588	
5.98969	0.360718	0.000457764	
5.98969	0.359802	0.000305176	
5.98969	0.357361	0.000305176	
5.98969	0.356445	0	
5.98938	0.355835	0.000457764	
5.98969	0.35553	0.000457764	
5.98938	0.354919	0	
5.98999	0.352173	0.000152588	
5.98999	0.351868	0.000610352	
5.98999	0.350952	0.000915527	
5.98907	0.349731	0.0012207	
5.98938	0.346985	0.000152588	
5.98969	0.34668	0.000457764	
5.98907	0.345154	0.000610352	
5.98999	0.345154	0.000457764	
5.98969	0.342407	0.000610352	
5.98999	0.341187	0	
5.98969	0.340881	0	
5.98999	0.340271	0.000305176	
5.98999	0.337524	0.000305176	
5.9906	0.335999	0.000305176	
5.98969	0.336609	0.000610352	
5.98999	0.335693	0.00106812	
5.98999	0.332642	0.000762939	
5.98999	0.331421	0.000457764	
5.98938	0.331421	0.000610352	
5.98938	0.3302	0.000610352	
5.98938	0.327454	0.000152588	
5.98907	0.326538	0.000610352	
5.9903	0.326843	0.000152588	
5.98969	0.325623	-0.000305176	
5.98999	0.323181	0.000152588	
5.98938	0.32135	0.000457764	
5.98907	0.320129	0	
5.98938	0.317383	0.000152588	
5.98846	0.316162	0.000152588	
5.98633	0.316467	0.000762939	
5.9845	0.315247	0.000610352	
5.98511	0.31311	0.000457764	
5.98511	0.31189	0.000762939	
5.98572	0.31189	0.000305176	
5.9845	0.311279	0.000305176	
5.9845	0.308533	0.000457764	
5.98419	0.307007	0.000152588	
5.9845	0.306396	0.000457764	
5.9845	0.303345	0.000457764	
5.9848	0.302734	0.000152588	
5.9848	0.301514	0.000152588	
5.9848	0.301514	0.000305176	
5.98511	0.298157	0.00106812	
5.98511	0.296936	0.00106812	
5.9848	0.296936	0.000305176	
5.9845	0.296326	0.000305176	
5.9845	0.293579	0.000915527	
5.9848	0.291748	0.000305176	
5.9845	0.291443	0.000457764	
5.9848	0.288391	0.000152588	
5.98541	0.28717	-0.000152588	
5.98511	0.28717	0.000610352	
5.9848	0.286865	0.000457764	
5.9848	0.283508	0.000152588	
5.9848	0.282898	-0.000152588	
5.9845	0.281372	0.0012207	
5.9845	0.27832	0.000915527	
5.9848	0.27832	0.000305176	
5.9848	0.277405	0.000305176	
5.98511	0.276489	0.000610352	
5.9848	0.273438	0.000457764	
5.9845	0.273438	0.000457764	
5.9848	0.270996	-0.000152588	
5.9848	0.268555	-0.000152588	
5.9848	0.267944	0.000305176	
5.9845	0.267639	0.000610352	
5.9845	0.266724	0.000305176	
5.9845	0.263977	0.000152588	
5.98419	0.263672	0.000305176	
5.98541	0.262451	0.00106812	
5.9845	0.261536	0.000457764	
5.98511	0.259705	0.000762939	
5.9845	0.257874	0.000457764	
5.9845	0.256653	0.000762939	
5.9848	0.253906	0.000152588	
5.98511	0.253296	0.000152588	
5.9845	0.253296	-0.000305176	
5.98541	0.252075	0	
5.98511	0.249634	0.000610352	
5.9848	0.247498	0.000152588	
5.98511	0.247192	0	
5.98511	0.243225	0.000610352	
5.98511	0.24292	0.00106812	
5.9848	0.243225	0.0012207	
5.9848	0.241699	0.000305176	
5.98541	0.239563	0.000305176	
5.9848	0.237732	0.000762939	
5.98511	0.237732	0.000305176	
5.9845	0.237427	0.000610352	
5.9848	0.234985	0.000305176	
5.9848	0.233154	-0.000305176	
5.9848	0.233154	0.000457764	
5.98511	0.229492	0.000152588	
5.98511	0.228577	0.000152588	
5.9845	0.228577	0.000610352	
5.9845	0.227661	0.000762939	
5.9848	0.224915	0.000915527	
5.9845	0.223694	0.000762939	
5.9845	0.223694	0.000915527	
5.98541	0.222778	0.000915527	
5.9848	0.219421	0.000457764	
5.9848	0.218506	0.000915527	
5.98511	0.218201	0	
5.98511	0.21759	-0.000610352	
5.9845	0.214844	-0.000305176	
5.9845	0.213623	0.000762939	
5.9845	0.213623	0.000457764	
5.98511	0.212708	0.000305176	
5.98511	0.209045	0.000457764	
5.98511	0.209045	0.000610352	
5.9848	0.20752	0.000305176	
5.9845	0.205688	0.000457764	
5.9848	0.204163	0.000762939	
5.9848	0.204163	0.000610352	
5.9848	0.203552	0.000457764	
5.98511	0.199585	0.000457764	
5.9848	0.198669	0	
5.9848	0.198669	0	
5.9845	0.198059	0	
5.9845	0.194702	0.000152588	
5.9848	0.194092	0	
5.9848	0.193787	0	
5.98511	0.193481	0.00137329	
5.9845	0.190125	0.00106812	
5.9845	0.189209	0.000152588	
5.98541	0.188904	0.000305176	
5.9848	0.189514	0.000610352	
5.9848	0.188293	0.000762939	
5.9848	0.184937	0.000457764	
5.9848	0.184326	-0.000152588	
5.98511	0.184021	-0.000152588	
5.9848	0.183716	0.000762939	
5.98511	0.180054	0	
5.9848	0.179138	0.000305176	
5.98511	0.179749	0.000305176	
5.98419	0.178833	0.000915527	
5.9845	0.176086	0.000762939	
5.9845	0.174561	0.000610352	
5.98419	0.174561	0.000762939	
5.98511	0.174561	0.000457764	
5.98419	0.173645	0.000305176	
5.9848	0.170593	0.000915527	
5.98511	0.169067	-0.000305176	
5.9848	0.169373	-0.000457764	
5.9845	0.168457	0.000305176	
5.9848	0.165405	0.000762939	
5.98511	0.164185	0.000305176	
5.9848	0.16449	0.000610352	
5.9848	0.163879	0.000152588	
5.98511	0.163574	0.000305176	
5.98511	0.161743	0.000305176	
5.9848	0.159607	0.000610352	
5.9845	0.159302	0.000610352	
5.9848	0.158386	0.000762939	
5.9845	0.15625	0.000152588	
5.98419	0.154724	0.000457764	
5.98511	0.155334	-0.000152588	
5.9845	0.154724	0.000152588	
5.98511	0.154114	0.000152588	
5.98511	0.151367	0.000152588	
5.9848	0.150146	0.000152588	
5.9848	0.149841	0.000610352	
5.98541	0.149841	0.00106812	
5.98541	0.149536	0.00167847	
5.98541	0.147095	0.000457764	
5.9848	0.145874	0.000457764	
5.9848	0.144958	0.000915527	
5.98511	0.145569	0.000457764	
5.9848	0.144043	0.000457764	
5.98511	0.141602	0.000305176	
5.9848	0.140381	-0.000152588	
5.9848	0.140076	0.000915527	
5.98541	0.139465	0.000152588	
5.9848	0.13855	0	
5.9845	0.137024	0.000457764	
5.9845	0.135498	0.000762939	
5.9848	0.134888	0.000915527	
5.98511	0.135193	0.000305176	
5.98511	0.135498	0.000762939	
5.9848	0.135193	0.000457764	
5.9845	0.131836	0.000305176	
5.98419	0.13031	0.000305176	
5.9848	0.13031	-0.000152588	
5.98511	0.13031	-0.000152588	
5.98511	0.1297	0.000305176	
5.98511	0.126648	0.000610352	
5.98541	0.125427	0.000305176	
5.9845	0.125427	0.000762939	
5.98572	0.125732	0.000610352	
5.98511	0.125427	0.000762939	
5.9848	0.124512	0.000915527	
5.9848	0.122681	0.000457764	
5.98511	0.120544	0.000610352	
5.98511	0.121155	0.00106812	
5.9848	0.120544	0	
5.98541	0.120544	0.000457764	
5.98419	0.119324	0	
5.9848	0.116882	0.000457764	
5.98511	0.115967	0.000152588	
5.9848	0.115967	0.000152588	
5.9848	0.115662	0.000152588	
5.9845	0.115662	0.000610352	
5.98541	0.115051	0.00106812	
5.9848	0.111694	0.00152588	
5.9848	0.110779	0	
5.98511	0.111084	0.000610352	
5.98419	0.110779	0.000762939	
5.98511	0.110474	0.000457764	
5.9845	0.110168	0.000305176	
5.98419	0.109558	0	
5.98511	0.106506	-0.000152588	
5.98572	0.106201	0.000457764	
5.98389	0.105896	0.000457764	
5.9848	0.105896	-0.000152588	
5.9848	0.105896	0.000305176	
5.98511	0.105896	0.000915527	
5.9848	0.105896	0.00106812	
5.98511	0.101624	0.000457764	
5.9848	0.101013	0.000305176	
5.98511	0.101318	0.000610352	
5.98419	0.101013	0.000152588	
5.9848	0.100403	0.000610352	
5.98572	0.101013	-0.000152588	
5.9845	0.100708	-0.000457764	
5.98511	0.0976563	0	
5.98511	0.0958252	0.000457764	
5.9848	0.0961304	0.000610352	
5.98541	0.0964355	0.000152588	
5.98511	0.0964355	0.000305176	
5.9848	0.0964355	0.000762939	
5.9848	0.0961304	0.000457764	
5.98511	0.0949097	0.000152588	
5.9845	0.0930786	0.000610352	
5.98511	0.0918579	0.000305176	
5.9848	0.0912476	0.000457764	
5.98572	0.0909424	0.000457764	
5.9848	0.0906372	-0.000305176	
5.98511	0.0912476	0.000152588	
5.9848	0.0909424	0.000305176	
5.9845	0.0906372	0.000152588	
5.98541	0.0872803	0.000305176	
5.9845	0.0866699	0.000457764	
5.9848	0.0863647	0.00106812	
5.9848	0.0860596	0.00152588	
5.9848	0.0866699	0.000305176	
5.98511	0.0866699	0.000610352	
5.98541	0.0863647	0.000762939	
5.9848	0.0860596	0	
5.9848	0.0854492	0.000610352	
5.9848	0.0817871	0.000152588	
5.98511	0.0808716	-0.000152588	
5.9845	0.0811768	0.000610352	
5.9848	0.0808716	0.000457764	
5.98419	0.0811768	0	
5.9848	0.0814819	0.000152588	
5.9848	0.0814819	0.000762939	
5.9848	0.0817871	0.000762939	
5.9848	0.0808716	0.000305176	
5.9845	0.0811768	0.000610352	
5.9848	0.0787354	0.000610352	
5.98541	0.0775146	0.000457764	
5.98511	0.0769043	0.000610352	
5.98572	0.0765991	-0.000152588	
5.9845	0.0772095	-0.000305176	
5.9845	0.0769043	0.000152588	
5.9848	0.0772095	0.000457764	
5.9845	0.078125	0.000152588	
5.98511	0.0772095	0.000305176	
5.98511	0.0762939	0.000457764	
5.9848	0.0744629	0.000762939	
5.98511	0.0726318	0.000457764	
5.9848	0.0720215	0.000457764	
5.98419	0.0723267	0.000457764	
5.9845	0.0720215	0.000610352	
5.9845	0.0723267	0.000152588	
5.98511	0.0723267	0.000305176	
5.9845	0.0723267	-0.000152588	
5.98511	0.0723267	0.000152588	
5.9848	0.0723267	0.000457764	
5.98511	0.0717163	0.000305176	
5.98511	0.0680542	0	
5.9848	0.0680542	0.000610352	
5.9848	0.0671387	0.0012207	
5.9845	0.0671387	0.00137329	
5.9845	0.0674438	0.000152588	
5.9845	0.0671387	0.000457764	
5.98419	0.0668335	0.000762939	
5.98511	0.0671387	0.000152588	
5.9848	0.0680542	0.000457764	
5.98541	0.0671387	0	
5.9845	0.0674438	0	
5.98511	0.0668335	0.000915527	
5.98511	0.0637817	0.000152588	
5.98511	0.0622559	0	
5.98511	0.0622559	0.000152588	
5.98419	0.0622559	0.000915527	
5.9845	0.0622559	0.000762939	
5.9845	0.0622559	0.000457764	
5.9848	0.062561	0.000457764	
5.98419	0.062561	0.000762939	
5.98419	0.0622559	0.000457764	
5.98511	0.062561	0.000915527	
5.9848	0.062561	-0.000305176	
5.98419	0.062561	-0.000305176	
5.98511	0.0610352	0.000152588	
5.9848	0.0592041	0.000457764	
5.9845	0.0576782	0.000305176	
5.98511	0.057373	0.000305176	
5.98511	0.0576782	0.000457764	
5.98541	0.0576782	0.00106812	
5.98511	0.0570679	0.000457764	
5.9848	0.057373	0.000457764	
5.9845	0.0576782	0.000915527	
5.98511	0.0576782	0.000762939	
5.9845	0.057373	0.000152588	
5.98419	0.0576782	0.000152588	
5.9848	0.0570679	-0.000152588	
5.98419	0.0564575	0	
5.9845	0.0540161	0	
5.9845	0.0531006	0.000152588	
5.98419	0.0518799	0.000152588	
5.9848	0.0527954	0.000305176	
5.98511	0.0527954	0.000915527	
5.9845	0.0524902	0.00106812	
5.9848	0.0531006	0.000610352	
5.9845	0.0521851	0.000610352	
5.9845	0.0531006	0.000610352	
5.9845	0.0524902	0.000152588	
5.98541	0.0524902	0.000610352	
5.98541	0.0531006	0	
5.98511	0.0524902	-0.000305176	
5.98419	0.0515747	0.000762939	
5.98511	0.0485229	0	
5.9848	0.0476074	0.000152588	
5.98419	0.0476074	0.000457764	
5.9845	0.0479126	0.000610352	
5.9845	0.0473022	0.000915527	
5.98511	0.0476074	0.000762939	
5.98511	0.0466919	0.000915527	
5.98511	0.0482178	0.000610352	
5.98511	0.0476074	0.000305176	
5.9845	0.0479126	0.000762939	
5.9848	0.0479126	-0.000305176	
5.9848	0.0473022	-0.000305176	
5.98511	0.0485229	0.000152588	
5.98511	0.0469971	0.000762939	
5.98541	0.0439453	0.000305176	
5.9848	0.0427246	0.000457764	
5.9848	0.0430298	0.000457764	
5.98511	0.0424194	0.000915527	
5.98541	0.0430298	0.000457764	
5.98511	0.0424194	0.000457764	
5.9848	0.0424194	0.00106812	
5.9845	0.0430298	0.000610352	
5.98511	0.0421143	0	
5.9848	0.0430298	0.000152588	
5.98511	0.0424194	0	
5.98419	0.0424194	0.000152588	
5.9848	0.0427246	0	
5.9845	0.0430298	0.000305176	
5.9848	0.0411987	0	
5.98633	0.0384521	0.000457764	
5.98877	0.0378418	0.00137329	
5.98938	0.038147	0.0012207	
5.98938	0.0375366	0.000457764	
5.9903	0.038147	0.000610352	
5.9903	0.0378418	0.000610352	
5.98999	0.0375366	0.000610352	
5.98969	0.0375366	0.000305176	
5.98999	0.0372314	-0.000152588	
5.98999	0.038147	0	
5.98999	0.0378418	0.000915527	
5.98938	0.0372314	0	
5.98969	0.0375366	0	
5.98999	0.0372314	0.000305176	
5.98999	0.0335693	0.000915527	
5.98999	0.032959	0.000610352	
5.98999	0.0332642	0.000610352	
5.98999	0.032959	0.000762939	
5.98999	0.032959	0.000457764	
5.98969	0.0326538	0.000152588	
5.98969	0.0323486	0.000610352	
5.9903	0.032959	-0.000610352	
5.9903	0.032959	-0.000152588	
5.98938	0.0326538	0	
5.98999	0.032959	0.000762939	
5.98999	0.0323486	0.000152588	
5.98938	0.0326538	0	
5.98907	0.0320435	0.000457764	
5.9903	0.0292969	0.000610352	
5.98999	0.027771	0.000457764	
5.98999	0.027771	0.000457764	
5.98999	0.0286865	0.000305176	
5.98907	0.0283813	0.000610352	
5.98999	0.027771	0.000152588	
5.98969	0.0280762	0.000152588	
5.98938	0.0271606	0.000152588	
5.98969	0.0280762	0.000152588	
5.9903	0.027771	0	
5.98907	0.0280762	0.000152588	
5.98969	0.027771	0.000152588	
5.98938	0.0268555	0.000457764	
5.98999	0.0247192	0.00152588	
5.98999	0.0234985	0.00137329	
5.98938	0.022583	0.000305176	
5.98969	0.0234985	0.000305176	
5.98938	0.0231934	0.000762939	
5.98969	0.0234985	0.000305176	
5.9903	0.0231934	0.000457764	
5.98969	0.0238037	0	
5.98938	0.0231934	0	
5.9903	0.0238037	0.000457764	
5.98969	0.022583	0.000305176	
5.98938	0.0228882	0.000305176	
5.9903	0.0228882	0.000305176	
5.9903	0.0192261	0.000915527	
5.98907	0.0186157	0.000762939	
5.98999	0.0189209	0.000457764	
5.98999	0.0186157	0.000457764	
5.98938	0.0183105	0.000915527	
5.98999	0.0177002	0.000305176	
5.98969	0.0186157	0.000457764	
5.98999	0.0183105	-0.000152588	
5.98969	0.0186157	-0.000305176	
5.98938	0.0186157	0.000305176	
5.9903	0.0183105	0.000762939	
5.98938	0.0186157	0.000305176	
5.98938	0.017395	0.000457764	
5.98999	0.0146484	0.000305176	
5.9906	0.0143433	0.000915527	
5.9903	0.0134277	0.000457764	
5.9903	0.0131226	0.000762939	
5.98969	0.0128174	0.000915527	
5.98969	0.0128174	0.000610352	
5.9903	0.0134277	-0.000152588	
5.98969	0.0131226	0.000152588	
5.98999	0.0134277	0	
5.98907	0.0125122	0.000305176	
5.98999	0.0137329	0	
5.98969	0.012207	-0.000152588	
5.98938	0.0088501	-0.000152588	
5.98938	0.00854492	0.000762939	
5.98999	0.0088501	0.00137329	
5.98999	0.00823975	0.0012207	
5.98999	0.00823975	0.000305176	
5.98969	0.00823975	0.000457764	
5.98969	0.00793457	0.000762939	
5.98938	0.00854492	0.000457764	
5.98999	0.00793457	0.000305176	
5.98969	0.00793457	-0.000152588	
5.98938	0.00793457	-0.000152588	
5.98938	0.00732422	0.000762939	
5.98938	0.00427246	0.000305176	
5.99121	0.00305176	0.000152588	
5.99335	0.00366211	0.000610352	
5.99457	0.00335693	0.000915527	
5.99518	0.00366211	0.000610352	
5.99487	0.00396729	0.000305176	
5.99426	0.00335693	0.000457764	
5.99487	0.00335693	0.000610352	
5.99426	0.00366211	0.000457764	
5.99487	0.00335693	0.000915527	
5.99487	0.00366211	-0.000457764	
5.99487	0.00366211	-0.000152588	
5.99487	0.00244141	0.000152588	
5.99518	0.000305176	0.000457764	
5.99487	-0.00152588	0.000152588	
5.99487	-0.00152588	-0.000152588	
5.99457	-0.00183105	0.000915527	
5.99487	-0.0012207	0.0012207	
5.99487	-0.00152588	0.000610352	
5.99518	-0.0012207	0.000610352	
5.99426	-0.00152588	0.000457764	
5.99487	-0.000915527	0.000610352	
5.99457	-0.0012207	0.000152588	
5.99487	-0.0012207	0.000305176	
5.99457	-0.0012207	0.000305176	
5.99426	-0.00213623	0.000305176	
5.99487	-0.00488281	0.000305176	
5.99487	-0.00640869	0.000457764	
5.99487	-0.00640869	-0.000152588	
5.99457	-0.00640869	0.000610352	
5.99396	-0.00579834	0.00137329	
5.99396	-0.00640869	0.0012207	
5.99487	-0.00640869	0.000305176	
5.99457	-0.00640869	0.000457764	
5.99396	-0.00579834	0.000762939	
5.99457	-0.00610352	0.000305176	
5.99457	-0.00610352	0.000152588	
5.99487	-0.00579834	-0.000305176	
5.99457	-0.00671387	0.000152588	
5.99487	-0.00976563	0.000762939	
5.99487	-0.010376	0.000305176	
5.99457	-0.0112915	-0.000152588	
5.99457	-0.00976563	0.000305176	
5.99457	-0.0112915	0.00106812	
5.99457	-0.0112915	0.000610352	
5.99518	-0.010376	0.000762939	
5.99487	-0.0112915	0.000762939	
5.99457	-0.0106812	0.000457764	
5.99518	-0.0112915	0.000610352	
5.99518	-0.0106812	0.000457764	
5.99396	-0.0106812	-0.000305176	
5.99457	-0.0119019	-0.000305176	
5.99457	-0.0146484	0.000152588	
5.99487	-0.015564	0.000457764	
5.99365	-0.0158691	0.000305176	
5.99457	-0.015564	0.000457764	
5.99457	-0.0167847	0.000305176	
5.99426	-0.0158691	0.000610352	
5.99518	-0.0167847	0.000457764	
5.99518	-0.0158691	0.000457764	
5.99915	-0.0158691	0.000457764	
5.99945	-0.0161743	0.000915527	
5.99915	-0.0161743	0.000152588	
5.99976	-0.0170898	0.000152588	
5.99976	-0.0195313	0	
5.99945	-0.020752	0	
5.99976	-0.0213623	0.000305176	
6.00006	-0.020752	0	
5.99945	-0.0213623	0	
5.99915	-0.0213623	0.000457764	
5.99915	-0.0216675	0.00106812	
5.99945	-0.020752	0.0012207	
5.99945	-0.0204468	0.000152588	
5.99976	-0.0210571	0.000610352	
5.99945	-0.020752	0.000762939	
5.99945	-0.0216675	0.000762939	
5.99976	-0.0250244	0.000152588	
5.99945	-0.0253296	0	
5.99976	-0.0262451	-0.000152588	
5.99945	-0.0265503	0.000610352	
5.99976	-0.0265503	0	
6.00006	-0.0262451	-0.000305176	
5.99915	-0.0262451	0.000305176	
5.99976	-0.0253296	0.00137329	
5.99945	-0.0253296	0.000762939	
6.00006	-0.0262451	0.000762939	
5.99915	-0.0268555	0.000610352	
5.99884	-0.0271606	0.000457764	
5.99976	-0.0299072	0.000915527	
5.99976	-0.0311279	0.000610352	
5.99976	-0.0308228	-0.000457764	
5.99976	-0.0311279	0.000152588	
5.99915	-0.0305176	0.000305176	
6.00006	-0.0308228	0.000610352	
5.99945	-0.0308228	0.000305176	
5.99945	-0.0305176	0	
5.99945	-0.0308228	0.000457764	
5.99884	-0.0305176	0.000610352	
5.99945	-0.0308228	0.000152588	
6.00006	-0.0317383	0.000610352	
6.00006	-0.0350952	0.000610352	
5.99945	-0.0350952	0.000457764	
5.99976	-0.0360107	0	
5.99976	-0.0360107	0	
5.99945	-0.0357056	0.000305176	
5.99915	-0.0354004	0	
5.99915	-0.0357056	0	
5.99915	-0.0360107	-0.000152588	
6.00037	-0.0357056	-0.000152588	
6.00342	-0.0350952	0.000457764	
6.00433	-0.0354004	0.0012207	
6.00403	-0.0366211	0.000762939	
6.00433	-0.0396729	0.000152588	
6.00433	-0.0405884	0.000610352	
6.00403	-0.0408936	0.000457764	
6.00433	-0.0405884	0.000915527	
6.00403	-0.0408936	0.000152588	
6.00403	-0.0411987	0.000152588	
6.00433	-0.0402832	0	
6.00525	-0.0405884	0.000610352	
6.00403	-0.0408936	0.000305176	
6.00433	-0.0408936	0	
6.00464	-0.0405884	0.000915527	
6.00494	-0.0411987	0.000915527	
6.00494	-0.0439453	0.000457764	
6.00525	-0.0457764	0.000152588	
6.00433	-0.0457764	0.000762939	
6.00494	-0.0457764	0.000457764	
6.00525	-0.045166	0.000610352	
6.00433	-0.0454712	0.000610352	
6.00372	-0.0457764	-0.000305176	
6.00433	-0.045166	-0.000305176	
6.00372	-0.0457764	0	
6.00494	-0.0448608	0.000152588	
6.00433	-0.0448608	0.000152588	
6.00464	-0.0457764	0.000457764	
6.00403	-0.0463867	0.000762939	
6.00433	-0.0497437	0.000762939	
6.00464	-0.0506592	0.000457764	
6.00464	-0.0506592	0.000610352	
6.00433	-0.0509644	0.000610352	
6.00433	-0.0497437	0.000762939	
6.00494	-0.050354	0	
6.00433	-0.050354	0.000152588	
6.00433	-0.050354	0.000457764	
6.00403	-0.0500488	0.000152588	
6.00464	-0.0512695	0	
6.00433	-0.0512695	0.000152588	
6.00403	-0.0509644	-0.000152588	
6.00433	-0.0515747	0.000305176	
6.00494	-0.0540161	0.0012207	
6.00891	-0.0549316	0.00152588	
6.00922	-0.055542	0.000305176	
6.00922	-0.0552368	0.000762939	
6.00952	-0.0552368	0.000762939	
6.00922	-0.0558472	0.000457764	
6.00922	-0.0552368	0	
6.00952	-0.0558472	0	
6.00891	-0.0549316	-0.000305176	
6.00983	-0.055542	0.000457764	
6.00922	-0.0549316	0.000305176	
6.00952	-0.0552368	0	
6.00922	-0.0564575	0.000305176	
6.00952	-0.0588989	0.000915527	
6.00952	-0.0595093	0.000457764	
6.00952	-0.0604248	0.00106812	
6.00983	-0.06073	0.000915527	
6.00922	-0.0601196	0.000915527	
6.00922	-0.0604248	0.000305176	
6.00861	-0.0598145	0.000457764	
6.00922	-0.0604248	-0.000457764	
6.00922	-0.06073	-0.000305176	
6.00952	-0.0601196	0.000152588	
6.00983	-0.0601196	0.000457764	
6.00952	-0.06073	0	
6.00922	-0.0613403	0.000152588	
6.00922	-0.0643921	0.000457764	
6.00891	-0.0653076	0.000915527	
6.00922	-0.0653076	0.000305176	
6.00983	-0.0650024	0.000305176	
6.00922	-0.0650024	0.000457764	
6.00922	-0.0646973	0.000610352	
6.00922	-0.0653076	-0.000152588	
6.00891	-0.0653076	-0.000305176	
6.00891	-0.0653076	0.000152588	
6.00922	-0.0650024	0	
6.00922	-0.0653076	0	
6.01105	-0.065918	0.000457764	
6.01257	-0.0653076	-0.000152588	
6.0141	-0.0662231	0.000305176	
6.01471	-0.0686646	0.00106812	
6.0144	-0.0701904	0.000915527	
6.01379	-0.0701904	0.000305176	
6.0144	-0.0698853	0.000610352	
6.0144	-0.0698853	0.000762939	
6.0144	-0.0701904	0.000305176	
6.01471	-0.0698853	0	
6.01501	-0.0708008	0.000305176	
6.01379	-0.0701904	0	
6.0141	-0.0698853	0.000762939	
6.01379	-0.0704956	-0.000152588	
6.01471	-0.0701904	0.000457764	
6.0141	-0.0708008	0.000457764	
6.01379	-0.072937	0.0012207	
6.01379	-0.0747681	0.000305176	
6.0144	-0.0747681	0.000610352	
6.0144	-0.0747681	0.000610352	
6.0141	-0.0750732	0.000610352	
6.0144	-0.0750732	0.000457764	
6.0141	-0.0747681	0.000305176	
6.0144	-0.0753784	-0.000305176	
6.01501	-0.0747681	-0.000457764	
6.0141	-0.0750732	0	
6.01379	-0.0753784	0.000305176	
6.0141	-0.0747681	0.000305176	
6.0144	-0.0759888	0.000152588	
6.01471	-0.0759888	0.000305176	
6.01471	-0.0790405	0.00106812	
6.0144	-0.0799561	0.000610352	
6.01501	-0.0796509	0.000610352	
6.01563	-0.0796509	0.000610352	
6.01746	-0.0787354	0.000152588	
6.01868	-0.0799561	0.000305176	
6.01959	-0.0805664	0	
6.01868	-0.0793457	0.000457764	
6.01837	-0.0793457	0.000152588	
6.01898	-0.0796509	0.000305176	
6.01898	-0.0796509	-0.000152588	
6.01929	-0.0802612	0	
6.01929	-0.0802612	0.000457764	
6.01929	-0.0836182	0.0012207	
6.01929	-0.0845337	0.000610352	
6.01898	-0.0848389	0.000457764	
6.01898	-0.0845337	0.000762939	
6.01929	-0.0848389	0.000762939	
6.01929	-0.0842285	0.000762939	
6.01929	-0.085144	0.000152588	
6.01868	-0.0848389	0.000305176	
6.01929	-0.0848389	0	
6.01959	-0.0845337	0.000610352	
6.01929	-0.0845337	0	
6.01868	-0.0842285	0	
6.01959	-0.0854492	0.000305176	
6.01868	-0.088501	0.00106812	
6.01898	-0.0888062	0.000457764	
6.01898	-0.0894165	0.000610352	
6.01929	-0.090332	0.000610352	
6.01929	-0.0891113	0.000762939	
6.01959	-0.0897217	0.000305176	
6.02051	-0.0897217	0.000457764	
6.02264	-0.090332	-0.000610352	
6.02417	-0.0888062	-0.000152588	
6.02448	-0.090332	0.000305176	
6.02386	-0.0894165	0.000457764	
6.02356	-0.0894165	0	
6.02386	-0.0894165	0.000152588	
6.02417	-0.090332	0.000762939	
6.02448	-0.0933838	0.000762939	
6.02417	-0.0949097	0	
6.02448	-0.0946045	0.000457764	
6.02356	-0.0946045	0.000915527	
6.02417	-0.0942993	0.000305176	
6.02448	-0.0939941	0.000305176	
6.02386	-0.0952148	0	
6.02386	-0.0946045	0.000610352	
6.02417	-0.0949097	0.000152588	
6.02478	-0.0946045	0	
6.02417	-0.0946045	0.000305176	
6.02448	-0.0946045	0.000457764	
6.02356	-0.0952148	0.000610352	
6.02448	-0.0985718	0.00137329	
6.02386	-0.098877	0.00152588	
6.02448	-0.0991821	0.000457764	
6.02386	-0.098877	0.000457764	
6.02386	-0.0997925	0.000762939	
6.02386	-0.0991821	0.000457764	
6.02478	-0.0991821	-0.000152588	
6.02814	-0.0991821	0	
6.02905	-0.0997925	-0.000152588	
6.02875	-0.098877	0.000915527	
6.02875	-0.0991821	0.000305176	
6.02844	-0.0997925	0.000762939	
6.02905	-0.0997925	0.000305176	
6.02905	-0.103455	0.00106812	
6.02936	-0.10437	0.000305176	
6.02936	-0.10437	0.000610352	
6.02936	-0.10437	0.000762939	
6.02936	-0.104675	0.000762939	
6.02936	-0.10498	0.000305176	
6.02966	-0.10376	0.000610352	
6.02844	-0.10437	-0.000457764	
6.02875	-0.10437	-0.000457764	
6.02905	-0.104065	0.000152588	
6.02875	-0.10376	0.000762939	
6.02936	-0.104065	0.000305176	
6.02875	-0.104065	0.000305176	
6.02905	-0.10498	0.000915527	
6.02905	-0.107727	0.000915527	
6.02875	-0.108643	0.000457764	
6.02875	-0.108948	0.000610352	
6.02997	-0.108948	0.000762939	
6.03302	-0.109253	0.000305176	
6.03363	-0.109558	0.000152588	
6.03424	-0.109253	0	
6.03394	-0.109253	0.000305176	
6.03394	-0.108643	0	
6.03363	-0.109253	0.000305176	
6.03455	-0.109558	0.000305176	
6.03394	-0.109558	-0.000457764	
6.03394	-0.109253	0.000762939	
6.03394	-0.110168	0.0012207	
6.03455	-0.112305	0.000762939	
6.03394	-0.114441	0.000152588	
6.03394	-0.114136	0.000457764	
6.03455	-0.115051	0.000610352	
6.03333	-0.114746	0.000762939	
6.03394	-0.114441	0	
6.03424	-0.114136	0.000457764	
6.03424	-0.114136	0	
6.03516	-0.114136	0.000457764	
6.03424	-0.114746	0.000152588	
6.03485	-0.113831	0.000305176	
6.03821	-0.114136	0.000457764	
6.03882	-0.114746	0.00137329	
6.03882	-0.117798	0.000305176	
6.03912	-0.119019	0.000152588	
6.03943	-0.119019	0.000610352	
6.03851	-0.117798	0.000762939	
6.03912	-0.118713	0.000457764	
6.03943	-0.118713	0.000610352	
6.03882	-0.119324	-0.000305176	
6.03851	-0.119324	-0.000152588	
6.03882	-0.119324	0	
6.03912	-0.119629	0.000457764	
6.03882	-0.119019	0.000457764	
6.03882	-0.119629	0.000152588	
6.03851	-0.119019	0.000915527	
6.03851	-0.120239	0.000610352	
6.03912	-0.122375	0.000610352	
6.03882	-0.123291	0.000915527	
6.03943	-0.123901	0.000610352	
6.03912	-0.124207	0.000610352	
6.04004	-0.124207	0	
6.04279	-0.124817	-0.000152588	
6.04401	-0.124207	0.000305176	
6.0437	-0.123901	0	
6.0434	-0.124207	0.000152588	
6.0434	-0.124512	0.000152588	
6.04401	-0.124207	-0.000152588	
6.0437	-0.123901	0.000610352	
6.04401	-0.125122	0.00167847	
6.0437	-0.128174	0.000457764	
6.04401	-0.128784	0.000305176	
6.04431	-0.128784	0.000762939	
6.0437	-0.128479	0.000610352	
6.0434	-0.129089	0.000762939	
6.04431	-0.128479	-0.000152588	
6.04401	-0.128784	0.000305176	
6.04431	-0.128784	-0.000152588	
6.0437	-0.128479	0.000305176	
6.04584	-0.129089	0.000152588	
6.04828	-0.129089	0.000457764	
6.04919	-0.128479	0.000305176	
6.04889	-0.13031	0.00152588	
6.04919	-0.132446	0.000610352	
6.04889	-0.133972	0.000305176	
6.04889	-0.133972	0.000610352	
6.04858	-0.133667	0.0012207	
6.04889	-0.133972	0.000610352	
6.04828	-0.133972	0.000610352	
6.04889	-0.133667	-0.000610352	
6.04889	-0.133667	-0.000152588	
6.04858	-0.133972	0	
6.04889	-0.133972	0.000457764	
6.04889	-0.133972	0.000152588	
6.04889	-0.134888	0.000305176	
6.04858	-0.137329	0.000457764	
6.0495	-0.138855	0.000762939	
6.05225	-0.13916	0.000457764	
6.05347	-0.138855	0.000610352	
6.05408	-0.13855	0.000610352	
6.05377	-0.13855	0.000305176	
6.05408	-0.138855	-0.000152588	
6.05377	-0.138855	-0.000152588	
6.05408	-0.13855	0	
6.05469	-0.138855	0.000152588	
6.05347	-0.138855	0	
6.05408	-0.13916	0.000305176	
6.05408	-0.139771	0.000152588	
6.05408	-0.142517	0.000610352	
6.05469	-0.144043	0.000762939	
6.05347	-0.143738	0.00106812	
6.05377	-0.144043	0	
6.0553	-0.143738	0.000762939	
6.05774	-0.143738	0.000762939	
6.05896	-0.144043	0.00106812	
6.05835	-0.144043	-0.000305176	
6.05835	-0.143433	0.000305176	
6.05865	-0.144043	0.000152588	
6.05865	-0.144043	0.000762939	
6.05957	-0.143738	-0.000152588	
6.05835	-0.144653	0.000305176	
6.05896	-0.147095	0.000152588	
6.05835	-0.148315	0.0012207	
6.05804	-0.148315	0.000457764	
6.05927	-0.14801	0.000762939	
6.05743	-0.148315	0.000762939	
6.05988	-0.148926	0.000915527	
6.06232	-0.149231	0.000305176	
6.06384	-0.148621	0.000305176	
6.06354	-0.148315	-0.000457764	
6.06354	-0.148315	0	
6.06415	-0.148315	0.000152588	
6.06445	-0.149231	0.000457764	
6.06354	-0.148926	0.000305176	
6.06354	-0.152283	0.000305176	
6.06384	-0.153198	0.000762939	
6.06323	-0.153503	0.000762939	
6.06384	-0.154114	0.000610352	
6.06415	-0.153503	0.000457764	
6.06354	-0.153503	0.000762939	
6.06506	-0.153809	0.000457764	
6.0672	-0.153503	-0.000152588	
6.06873	-0.152893	-0.000152588	
6.06903	-0.153809	0.000152588	
6.06842	-0.153198	0.000152588	
6.06903	-0.153809	-0.000152588	
6.06812	-0.153198	0.000610352	
6.06842	-0.154114	0	
6.06812	-0.157166	0.000762939	
6.06873	-0.157471	0.000915527	
6.06812	-0.157776	0.000915527	
6.06873	-0.158081	0.000152588	
6.06934	-0.157776	0.000610352	
6.06995	-0.158386	0.000457764	
6.07239	-0.158386	0.000305176	
6.0733	-0.158386	-0.000152588	
6.07422	-0.158081	0.000457764	
6.07269	-0.158081	-0.000152588	
6.0733	-0.157776	0.000762939	
6.073	-0.158081	0.000305176	
6.07361	-0.158386	0.000305176	
6.07361	-0.158386	0.000152588	
6.0733	-0.158691	0.00152588	
6.07361	-0.161743	0.000762939	
6.0733	-0.163574	0.000915527	
6.07452	-0.163269	0.000610352	
6.07758	-0.163269	0.000610352	
6.0791	-0.162659	0.000152588	
6.07849	-0.163269	0.000305176	
6.07849	-0.163269	-0.000305176	
6.0788	-0.163269	0	
6.07788	-0.163879	0.000152588	
6.0791	-0.163269	0.000305176	
6.0791	-0.163574	0.000457764	
6.0791	-0.162964	0.000152588	
6.07849	-0.162659	0.000610352	
6.07849	-0.162659	0.000915527	
6.07941	-0.164185	0.000610352	
6.08154	-0.16449	0.000762939	
6.08337	-0.166931	0.000305176	
6.08337	-0.168152	0	
6.08398	-0.167847	0	
6.08307	-0.168762	0.000305176	
6.08398	-0.167847	0.000457764	
6.08368	-0.168152	0.000305176	
6.08307	-0.167847	-0.000152588	
6.08337	-0.167847	0.000305176	
6.08368	-0.167847	0.000152588	
6.08398	-0.168152	0.000762939	
6.08429	-0.167542	0.00137329	
6.08673	-0.167847	0.0012207	
6.08826	-0.167542	0.000152588	
6.08887	-0.167847	0.000762939	
6.08856	-0.167847	0.000762939	
6.08826	-0.167542	0.000610352	
6.08856	-0.168457	-0.000152588	
6.08887	-0.168152	0.000152588	
6.08826	-0.172424	0.000152588	
6.08856	-0.172729	0.000610352	
6.08826	-0.173035	0.000457764	
6.08948	-0.172729	0.000305176	
6.09192	-0.173035	0.000305176	
6.09375	-0.172729	0.00106812	
6.09314	-0.17334	0.000457764	
6.09314	-0.17334	0.000305176	
6.09375	-0.172729	0.000457764	
6.09375	-0.17334	0.000305176	
6.09406	-0.173035	0.000305176	
6.09344	-0.172729	0.000305176	
6.09344	-0.17334	-0.000305176	
6.09344	-0.172424	0	
6.09497	-0.172424	0.000457764	
6.09741	-0.172119	0.000457764	
6.09802	-0.17334	0.000152588	
6.09863	-0.173035	0.000152588	
6.09924	-0.17334	0.000762939	
6.09894	-0.172424	0.0012207	
6.09833	-0.17334	0.000762939	
6.09863	-0.17334	0.000457764	
6.09863	-0.176697	0.000457764	
6.09802	-0.177917	0.000152588	
6.09772	-0.178223	0.000305176	
6.09924	-0.177917	0	
6.10138	-0.177612	0.000305176	
6.10352	-0.178223	0.000152588	
6.10291	-0.178223	0.000152588	
6.10321	-0.177612	0.000305176	
6.10291	-0.177917	-0.000152588	
6.10291	-0.177612	0.000762939	
6.10321	-0.177612	0.000915527	
6.10321	-0.177612	0.000762939	
6.10321	-0.178223	0	
6.10382	-0.178223	0.000610352	
6.10748	-0.177917	0.000610352	
6.1087	-0.177917	0.000610352	
6.10901	-0.177612	0	
6.10809	-0.178223	0.000305176	
6.10809	-0.178223	-0.000152588	
6.10748	-0.177917	0.000610352	
6.10748	-0.177917	0	
6.1084	-0.177612	0.000762939	
6.1084	-0.177612	0.000305176	
6.1087	-0.177917	0.00106812	
6.11176	-0.177612	0.000762939	
6.11298	-0.177612	0.000457764	
6.11359	-0.177612	0.000610352	
6.11389	-0.178223	0.000610352	
6.11359	-0.177612	0.000457764	
6.11359	-0.177917	0.000305176	
6.11267	-0.179138	-0.000305176	
6.11298	-0.18158	0.000152588	
6.11328	-0.182495	0.000457764	
6.1142	-0.182495	0.000305176	
6.11694	-0.183105	0.000305176	
6.11786	-0.182495	0	
6.11847	-0.1828	0.000762939	
6.11847	-0.183411	0.000457764	
6.11786	-0.1828	0.000152588	
6.11816	-0.182495	0.000610352	
6.11847	-0.182495	0.000457764	
6.11847	-0.1828	0.000610352	
6.11786	-0.183105	-0.000152588	
6.11938	-0.1828	0	
6.12183	-0.1828	0.000305176	
6.12335	-0.182495	0.000152588	
6.12305	-0.183105	0	
6.12305	-0.18219	0.000305176	
6.12305	-0.182495	0.000152588	
6.12305	-0.18219	0.000762939	
6.12274	-0.182495	0.0012207	
6.12274	-0.182495	0.000457764	
6.12335	-0.183105	0.000152588	
6.12366	-0.182495	0.000762939	
6.12671	-0.183411	0.000457764	
6.12793	-0.1828	0.000457764	
6.12793	-0.182495	-0.000152588	
6.12854	-0.182495	0.000305176	
6.12823	-0.183105	0.000152588	
6.12793	-0.183411	0.000610352	
6.12793	-0.183105	0.000305176	
6.12793	-0.1828	0.000305176	
6.12885	-0.183105	0.000457764	
6.1319	-0.1828	0.00106812	
6.13251	-0.183411	0.000457764	
6.13251	-0.183411	0.000457764	
6.13281	-0.1828	0.000610352	
6.13281	-0.182495	0.000457764	
6.13342	-0.183105	0.000305176	
6.13312	-0.183105	0.000305176	
6.13312	-0.18219	-0.000305176	
6.13281	-0.182495	0	
6.13342	-0.1828	0.000152588	
6.13708	-0.182495	0.000152588	
6.13831	-0.183105	0.000457764	
6.13861	-0.182495	0.000152588	
6.1377	-0.18219	0.000457764	
6.13861	-0.182495	0.000762939	
6.138	-0.183105	0.000457764	
6.1377	-0.182495	0.000457764	
6.1377	-0.182495	0.000915527	
6.13953	-0.18219	0.000152588	
6.14166	-0.183105	0	
6.14227	-0.182495	0.000152588	
6.14258	-0.1828	0.000305176	
6.14349	-0.182495	0.000457764	
6.14288	-0.182495	0	
6.14258	-0.183716	0.000610352	
6.14288	-0.182495	0.000457764	
6.14288	-0.18219	0.000915527	
6.1438	-0.183105	0.00137329	
6.14655	-0.1828	0.00106812	
6.14746	-0.182495	-0.000152588	
6.14746	-0.182495	0.00106812	
6.14746	-0.181274	0.00106812	
6.14746	-0.179138	0.000305176	
6.14746	-0.177002	-0.000152588	
6.14868	-0.177917	0.000152588	
6.14777	-0.177917	0.000152588	
6.14868	-0.177917	0.000457764	
6.15112	-0.177917	0.000305176	
6.15295	-0.177917	0.000305176	
6.15295	-0.177917	0.000457764	
6.15326	-0.178223	0.0012207	
6.15265	-0.177612	0.000610352	
6.15326	-0.177612	0.000610352	
6.15295	-0.178223	0.000762939	
6.15295	-0.177307	0.000457764	
6.15326	-0.178223	0.000610352	
6.15631	-0.177917	0.000610352	
6.15723	-0.177612	-0.000305176	
6.15753	-0.178223	0.000152588	
