model_ppg1.acq
0.5 msec/sample
3 channels
RSP, X, RSPEC-R
Volts
PPG, X, PPGED-R
Volts
ECG, Y, RSPEC-R
mV
CH1	CH2	CH13	
244583	244583	244583	
6.96564	-0.0375366	0.000915527	
6.96564	-0.0289917	0.000457764	
6.96564	-0.0213623	0	
6.96594	-0.0119019	0.000610352	
6.96625	-0.00427246	0.00106812	
6.96655	0.00305176	0.000762939	
6.96564	0.0100708	0.000610352	
6.96594	0.0177002	0.000610352	
6.96625	0.0274658	0.000305176	
6.96655	0.0344849	0.000762939	
6.96564	0.0424194	0.000152588	
6.96564	0.0515747	-0.000305176	
6.96625	0.0595093	-0.000305176	
6.96625	0.0668335	0.000457764	
6.96564	0.0759888	0	
6.96625	0.083313	0.000305176	
6.96625	0.090332	0.000457764	
6.96564	0.0991821	0.000457764	
6.96533	0.107422	0.000152588	
6.96503	0.115051	0.000305176	
6.96564	0.123901	0.000152588	
6.96533	0.131836	0	
6.96564	0.139465	0.000152588	
6.96625	0.148621	0.000305176	
6.96655	0.156555	-0.000305176	
6.96625	0.163574	0	
6.96564	0.173645	0.000152588	
6.96594	0.180054	0.000152588	
6.96564	0.188599	0.000305176	
6.96564	0.195618	0.000457764	
6.96655	0.203552	0.000915527	
6.96625	0.212402	0.000915527	
6.96533	0.220337	0.000915527	
6.96594	0.229492	0.000915527	
6.96564	0.237122	0.000915527	
6.96655	0.245056	0.000305176	
6.96625	0.252075	0.000762939	
6.96564	0.261841	0.000152588	
6.96625	0.269775	0.000457764	
6.96533	0.277405	0	
6.96259	0.286255	0.000762939	
6.96167	0.293884	0.000305176	
6.96075	0.301208	0.000305176	
6.96045	0.310364	0.000610352	
6.96167	0.318298	0.0012207	
6.96136	0.326233	0.000762939	
6.96045	0.335388	0.000915527	
6.96106	0.342712	0.000610352	
6.96136	0.349731	0.000305176	
6.96075	0.357361	0.000915527	
6.96106	0.365295	0.000152588	
6.96106	0.374146	-0.000305176	
6.96136	0.38208	-0.000152588	
6.96136	0.389709	0.000152588	
6.96106	0.398865	0	
6.96136	0.405884	0.000305176	
6.96075	0.413818	0.000457764	
6.96167	0.421448	0.000305176	
6.96106	0.429688	0.000457764	
6.96136	0.438232	0.000457764	
6.96106	0.446167	0.000305176	
6.96136	0.452881	0.000457764	
6.96106	0.46051	0	
6.96106	0.467834	0.000457764	
6.96106	0.474854	-0.000457764	
6.96106	0.482483	0	
6.96167	0.491943	0.000305176	
6.96106	0.499268	0	
6.96136	0.506897	0.000152588	
6.96075	0.514526	0.000152588	
6.96075	0.522461	0.000762939	
6.96136	0.529175	0.0012207	
6.96075	0.536804	0.000762939	
6.96045	0.543823	0.000915527	
6.96075	0.551147	0.000457764	
6.96075	0.558472	0.000305176	
6.96106	0.566101	0.000610352	
6.96106	0.572815	0.000152588	
6.96136	0.580444	0.000305176	
6.96045	0.588074	0.000305176	
6.96075	0.596313	0.000152588	
6.96106	0.602112	0.000305176	
6.96106	0.610657	0	
6.96075	0.617676	0.000762939	
6.96106	0.625	0.0012207	
6.96075	0.631714	0.000762939	
6.96136	0.639954	0.000457764	
6.96075	0.646057	0.000762939	
6.96106	0.652161	0.000457764	
6.96075	0.659485	0.000762939	
6.96106	0.666809	0	
6.96045	0.674133	-0.000152588	
6.96136	0.680542	-0.000305176	
6.96045	0.686646	0.000152588	
6.96106	0.693665	0	
6.96075	0.700684	0	
6.9574	0.708008	0.000305176	
6.95618	0.715332	0.000610352	
6.95618	0.72113	0.000762939	
6.95618	0.728149	0.000457764	
6.95618	0.735168	0.000152588	
6.95648	0.739441	0.000457764	
6.95648	0.747986	0	
6.95587	0.7547	0.000457764	
6.95618	0.760498	-0.000457764	
6.95618	0.767517	0.000762939	
6.95618	0.774536	0.000305176	
6.95587	0.779724	0	
6.95557	0.784302	0.000610352	
6.95587	0.791931	0.000152588	
6.95648	0.79895	0.000610352	
6.95557	0.803833	0.00106812	
6.95648	0.809326	0.000915527	
6.95648	0.81604	0.000915527	
6.95557	0.823364	0.000762939	
6.95526	0.828247	0.000457764	
6.95557	0.834351	0.000457764	
6.95587	0.840759	0.000305176	
6.95618	0.847778	0	
6.95648	0.853271	0.000457764	
6.95557	0.858459	0.000457764	
6.95618	0.863342	0.000305176	
6.95557	0.86792	0.000305176	
6.95618	0.874939	0.000762939	
6.95587	0.882568	0.00106812	
6.95618	0.888672	0.000610352	
6.95587	0.892334	0.000762939	
6.95618	0.897217	0.000762939	
6.95618	0.903015	0.000305176	
6.95587	0.907898	0.000610352	
6.95557	0.91217	0	
6.95587	0.917664	-0.000762939	
6.95557	0.921936	-0.000305176	
6.95587	0.926819	0.000305176	
6.95618	0.931091	0	
6.95679	0.936584	0.000305176	
6.95618	0.944214	0.000152588	
6.95618	0.950623	0.000610352	
6.95526	0.956421	0.000305176	
6.95587	0.960999	0.000305176	
6.95648	0.963745	0.000152588	
6.95587	0.967102	0.000457764	
6.95587	0.971375	0.000152588	
6.95557	0.975342	0.000305176	
6.95618	0.980835	-0.000610352	
6.95618	0.985413	0.000152588	
6.95587	0.990601	0.000305176	
6.95679	0.996094	0	
6.95557	1.00006	0.000610352	
6.95648	1.00586	0.000152588	
6.95618	1.01074	0.000457764	
6.95587	1.01532	0.00137329	
6.95313	1.01746	0.000762939	
6.9516	1.02142	0.000305176	
6.9516	1.02539	0.000457764	
6.95129	1.02905	0.000152588	
6.9516	1.03516	0.000610352	
6.9519	1.03882	0	
6.95068	1.04218	0.000610352	
6.95129	1.04492	0.000610352	
6.95129	1.0498	0.000305176	
6.95129	1.05408	0.000152588	
6.95221	1.05713	0.000152588	
6.9516	1.05988	0.000762939	
6.95129	1.06415	0.000915527	
6.95221	1.06964	0.000457764	
6.95038	1.07208	0.000610352	
6.9516	1.07391	0.000305176	
6.95129	1.0791	0.000305176	
6.95129	1.08124	0.000457764	
6.95129	1.08429	0	
6.9516	1.08795	-0.000610352	
6.95129	1.091	-0.000305176	
6.95099	1.09375	0.000457764	
6.95099	1.09589	-0.000305176	
6.9516	1.09924	0.000915527	
6.95129	1.10291	0.000305176	
6.95099	1.10565	0.000457764	
6.95129	1.10809	0.000610352	
6.95099	1.11084	0.000457764	
6.95129	1.11359	0.000457764	
6.9516	1.11572	0	
6.95099	1.11877	0.000152588	
6.95099	1.12244	0.000305176	
6.95129	1.12549	-0.000610352	
6.95099	1.12915	0	
6.95099	1.13007	0	
6.95129	1.13007	-0.000305176	
6.9516	1.13342	0.000610352	
6.95099	1.13464	0.000152588	
6.95099	1.13892	0.000457764	
6.95099	1.14075	0.0012207	
6.9519	1.14319	0.000762939	
6.9516	1.14471	0.000305176	
6.95129	1.14502	0.000762939	
6.95099	1.14807	0.000457764	
6.95129	1.1496	0.000305176	
6.9519	1.15265	0	
6.9516	1.15509	0.000305176	
6.95129	1.1557	0.000152588	
6.95129	1.15784	0.000305176	
6.95129	1.15967	0.000457764	
6.95099	1.16089	0.000457764	
6.9519	1.16028	0.000915527	
6.9519	1.16272	0.00137329	
6.9516	1.16455	0.000610352	
6.9516	1.16486	0.000457764	
6.95068	1.1676	0.00106812	
6.94855	1.16943	0.000457764	
6.94641	1.17035	0.000610352	
6.94611	1.17004	0	
6.94611	1.17035	-0.000610352	
6.94672	1.17249	-0.000457764	
6.94611	1.17462	0.000762939	
6.94641	1.17493	0.000305176	
6.94672	1.17523	0.000762939	
6.94672	1.17493	-0.000152588	
6.94611	1.17493	0.000152588	
6.94611	1.17737	0.000305176	
6.9458	1.17889	0.000152588	
6.94641	1.1795	0.000457764	
6.9458	1.18011	0.000305176	
6.94641	1.1795	0.000152588	
6.94641	1.17981	0.000152588	
6.94672	1.1795	-0.000305176	
6.94641	1.1795	0.000305176	
6.94641	1.1792	0.000305176	
6.94641	1.17981	0.000305176	
6.94702	1.17981	0.000305176	
6.9458	1.17981	0.000152588	
6.94641	1.17981	0.000762939	
6.94641	1.18011	0.00137329	
6.94611	1.1792	0.000610352	
6.94611	1.18011	0.0012207	
6.94702	1.17889	0.000610352	
6.94641	1.1795	0.000152588	
6.94611	1.18042	0.000762939	
6.94641	1.1795	0.000152588	
6.94611	1.18011	0.000305176	
6.94611	1.17981	0.000152588	
6.94672	1.17981	0.000152588	
6.94702	1.18011	0.000305176	
6.94641	1.17981	0.000152588	
6.9458	1.17798	0.000915527	
6.94672	1.17523	0.00137329	
6.94702	1.17462	0.000457764	
6.94641	1.17432	0.000762939	
6.9458	1.17523	0.000305176	
6.94672	1.17493	0.000305176	
6.9455	1.17279	0.000610352	
6.9458	1.17035	0	
6.94611	1.17035	-0.000610352	
6.94672	1.16974	-0.000457764	
6.94702	1.17035	0.000762939	
6.94641	1.16821	0.000305176	
6.94672	1.16608	0.000305176	
6.94672	1.16547	0.000152588	
6.94672	1.16486	0.000610352	
6.94641	1.16272	0.000305176	
6.94672	1.16119	0.000305176	
6.94611	1.15997	0.000457764	
6.94702	1.16028	0.000305176	
6.94641	1.15784	0.000305176	
6.94611	1.15631	0.000305176	
6.9458	1.15509	-0.000610352	
6.94275	1.15326	0	
6.94183	1.15112	0	
6.94122	1.15051	0	
6.94214	1.14838	0.000305176	
6.94214	1.14594	-0.000152588	
6.94153	1.14594	0.000915527	
6.94153	1.14319	0.00106812	
6.94153	1.14136	0.000610352	
6.94183	1.13831	0.000762939	
6.94183	1.13678	0.000457764	
6.94122	1.13556	0.000457764	
6.94122	1.13342	0.000610352	
6.94092	1.13129	0.000152588	
6.94183	1.12823	0.000305176	
6.94092	1.1264	0.000152588	
6.94122	1.12335	0.000305176	
6.94122	1.12091	0.000305176	
6.94183	1.11908	0	
6.94153	1.11694	0.000762939	
6.94122	1.11359	0.00152588	
6.94153	1.11145	0.000915527	
6.94153	1.11084	0.000457764	
6.94153	1.10901	0.000762939	
6.94183	1.10474	0.000305176	
6.94153	1.10138	0.000610352	
6.94183	1.09894	0.000152588	
6.94183	1.09741	-0.000457764	
6.94122	1.09436	-0.000610352	
6.94183	1.09283	0.000610352	
6.94153	1.08948	-0.000152588	
6.94092	1.08765	0.000457764	
6.94153	1.0849	0.000305176	
6.94153	1.08276	0.000457764	
6.94183	1.07971	0.000457764	
6.94153	1.07513	0.000457764	
6.94092	1.073	0.000152588	
6.94092	1.07056	0.000305176	
6.94122	1.0672	0.000305176	
6.94183	1.06476	0.000152588	
6.94092	1.06018	-0.000305176	
6.94183	1.05804	0.000152588	
6.94153	1.05499	0.000457764	
6.94153	1.05072	0	
6.94214	1.04858	0.000762939	
6.94183	1.04523	-0.000152588	
6.94153	1.04095	0.000457764	
6.94153	1.03851	0.00106812	
6.94122	1.03577	0.00106812	
6.94153	1.03088	0.000457764	
6.94214	1.02844	0.000457764	
6.94183	1.02509	0.000457764	
6.94122	1.02112	0.000305176	
6.94153	1.01837	0	
6.94153	1.01685	0.000152588	
6.94153	1.01196	0.000305176	
6.94092	1.00891	0.000457764	
6.93817	1.00647	0.000457764	
6.93695	1.0022	0.000152588	
6.93604	0.997314	0.000762939	
6.93634	0.994568	0.0012207	
6.93665	0.992126	0.000610352	
6.93665	0.987244	0.000457764	
6.93665	0.982361	0.000610352	
6.93665	0.979919	0.000762939	
6.93573	0.977478	0.000457764	
6.93695	0.97229	0	
6.93665	0.968018	-0.000152588	
6.93573	0.965271	-0.000610352	
6.93695	0.962524	0.000610352	
6.93665	0.957642	0	
6.93665	0.952148	0.000152588	
6.93665	0.947876	0	
6.93726	0.945435	0.000457764	
6.93665	0.942078	0.000457764	
6.93665	0.937805	0.000305176	
6.93604	0.933533	0.000305176	
6.93634	0.92804	0.000762939	
6.93634	0.924988	0	
6.93634	0.922241	0.000305176	
6.93634	0.918884	-0.000457764	
6.93634	0.913696	0	
6.93604	0.908508	0.000152588	
6.93634	0.903625	0	
6.93665	0.901489	0.000457764	
6.93665	0.897827	-0.000152588	
6.93604	0.894165	0.000457764	
6.93665	0.889893	0.00106812	
6.93604	0.884705	0.000915527	
6.93604	0.878906	0.000457764	
6.93634	0.874023	0.000915527	
6.93634	0.872192	0.000305176	
6.93726	0.86853	0.000457764	
6.93665	0.864258	0.000152588	
6.93665	0.859375	0.000457764	
6.93726	0.855103	0.000457764	
6.93634	0.849915	0.000610352	
6.93695	0.845642	0.000152588	
6.93695	0.840149	0.000305176	
6.93634	0.837402	0.000762939	
6.93695	0.834656	0.00137329	
6.93665	0.831299	0	
6.93634	0.8255	0.000610352	
6.93634	0.820007	0.000610352	
6.93634	0.815735	0.000762939	
6.93634	0.810852	0.000610352	
6.93665	0.805664	0.000305176	
6.93604	0.800476	-0.000762939	
6.93695	0.797424	-0.000610352	
6.93665	0.795288	0.000610352	
6.93634	0.791016	0.000152588	
6.93665	0.785828	0.000152588	
6.93665	0.78125	-0.000152588	
6.93634	0.776978	0.000762939	
6.93359	0.77179	0.000457764	
6.93146	0.766296	0.000457764	
6.93176	0.761414	-0.000152588	
6.93176	0.756836	0.000305176	
6.93207	0.751343	-0.000152588	
6.93085	0.74707	0.000305176	
6.93146	0.743713	-0.000457764	
6.93176	0.741272	-0.000152588	
6.93176	0.736389	0.000457764	
6.93207	0.732422	0	
6.93176	0.726624	0	
6.93146	0.722351	0	
6.93176	0.717163	0.000610352	
6.93115	0.712891	0.0012207	
6.93207	0.707397	0.000915527	
6.93176	0.70343	0.000305176	
6.93146	0.697632	0.000457764	
6.93085	0.692749	0.000305176	
6.93207	0.687866	0.000152588	
6.93176	0.684814	0.000152588	
6.93176	0.681763	0.000305176	
6.93237	0.677795	0.000305176	
6.93176	0.673828	0.000305176	
6.93054	0.668335	0.000457764	
6.93146	0.664063	0.000152588	
6.93176	0.657959	0.000915527	
6.93176	0.653381	0.00137329	
6.93146	0.648193	0.000762939	
6.93146	0.643616	0.000457764	
6.93146	0.638733	0.000305176	
6.93146	0.634155	0.000610352	
6.93146	0.628662	0.000915527	
6.93146	0.624084	0	
6.93176	0.619202	-0.000610352	
6.93176	0.617371	-0.000305176	
6.93207	0.614624	0.000457764	
6.93146	0.609741	0	
6.93176	0.604553	0.000305176	
6.93146	0.599976	-0.000152588	
6.93146	0.595398	0.000457764	
6.93115	0.5896	0.000305176	
6.93115	0.584717	0.000305176	
6.93115	0.580139	0	
6.93207	0.575562	0.000305176	
6.93176	0.570374	0.000152588	
6.93176	0.56488	0.000152588	
6.93146	0.560303	-0.000457764	
6.93146	0.55481	0.000457764	
6.93207	0.553589	0.000152588	
6.93115	0.550537	0	
6.93207	0.545654	0.000305176	
6.93146	0.540771	0.000305176	
6.93146	0.535889	0.000610352	
6.93146	0.531006	0.00137329	
6.93146	0.526123	0.00106812	
6.93115	0.52124	0.000915527	
6.92871	0.516663	0.000610352	
6.92749	0.511475	0.000457764	
6.92657	0.506897	0.000305176	
6.92627	0.501404	0.000152588	
6.92688	0.499268	0.000457764	
6.92719	0.495911	0	
6.92688	0.492249	0.000915527	
6.92688	0.487061	0.000305176	
6.92688	0.481873	0.000305176	
6.92627	0.477295	0.000610352	
6.92688	0.472107	0.00137329	
6.92688	0.467834	0.000457764	
6.92657	0.462952	0.000457764	
6.92657	0.457458	0.000152588	
6.92688	0.454407	0.000457764	
6.92657	0.452576	0.000610352	
6.92657	0.447693	0.000152588	
6.92688	0.442505	-0.000305176	
6.92627	0.437622	-0.000457764	
6.92688	0.433655	0.000610352	
6.92657	0.427856	0.000305176	
6.92657	0.422668	0.000152588	
6.92719	0.417786	0.000152588	
6.92657	0.415344	0.000457764	
6.92627	0.412903	0.000457764	
6.92719	0.40802	0.000305176	
6.92657	0.403137	-0.000152588	
6.92627	0.39917	0.000305176	
6.92657	0.393677	0	
6.92719	0.389099	0.000152588	
6.92627	0.384216	-0.000305176	
6.92749	0.381165	0.000305176	
6.92657	0.378723	0.000457764	
6.92657	0.374146	-0.000152588	
6.92688	0.369873	0.000305176	
6.92627	0.364685	-0.000152588	
6.92627	0.360107	0.000457764	
6.92688	0.354004	0.0012207	
6.92688	0.351563	0.000610352	
6.92657	0.349121	0.000915527	
6.92719	0.345154	0.000610352	
6.92627	0.339966	0.000305176	
6.92688	0.335083	0.000762939	
6.92657	0.3302	0.000305176	
6.92657	0.327148	0.000305176	
6.92688	0.324402	0.000457764	
6.92657	0.32074	0.000305176	
6.92657	0.314941	0.000610352	
6.92688	0.310669	0	
6.92627	0.305481	0.000762939	
6.92688	0.303345	0.00137329	
6.92657	0.300598	0.000305176	
6.92719	0.296021	0.000457764	
6.92688	0.290527	0.000610352	
6.92688	0.28656	0.00106812	
6.92657	0.283203	0.000457764	
6.92627	0.280762	0	
6.92383	0.276184	-0.000457764	
6.9223	0.270996	-0.000305176	
6.92139	0.265808	0.000762939	
6.922	0.26123	0.000152588	
6.92139	0.258789	0.000152588	
6.92108	0.256042	0.000305176	
6.92169	0.251465	0.000457764	
6.9223	0.247498	0.000457764	
6.9223	0.244141	0.000305176	
6.922	0.241089	0.000152588	
6.92261	0.237427	0.000152588	
6.92139	0.231934	0	
6.922	0.227051	0.000152588	
6.92139	0.223999	-0.000457764	
6.9223	0.221863	0.000152588	
6.92139	0.21698	0.000457764	
6.92261	0.212097	0.000152588	
6.92139	0.209961	0.000305176	
6.92169	0.206604	0.000457764	
6.922	0.202332	0.000915527	
6.92169	0.198059	0.000915527	
6.922	0.195313	0.000762939	
6.92169	0.19165	0.000457764	
6.92139	0.188599	0.000762939	
6.92169	0.183105	0.000152588	
6.92139	0.180054	0.000610352	
6.922	0.177612	0	
6.92169	0.17334	0.000457764	
6.922	0.170288	0.000457764	
6.922	0.167542	0.000610352	
6.92139	0.163574	0.000762939	
6.9223	0.158386	0.000152588	
6.92169	0.15564	0.000915527	
6.92169	0.153198	0.00137329	
6.9223	0.148926	0.000457764	
6.92078	0.146484	0.000457764	
6.92139	0.142822	0.000457764	
6.9223	0.13916	0.000152588	
6.92139	0.134277	0.000457764	
6.92139	0.131226	0	
6.92169	0.127869	-0.000152588	
6.92139	0.123901	-0.000305176	
6.92139	0.12146	0.000457764	
6.92139	0.119019	0.000152588	
6.92169	0.114441	0.000152588	
6.92169	0.111694	0.000152588	
6.92139	0.108337	0.000152588	
6.9223	0.104675	0.000152588	
6.922	0.101624	0.000915527	
6.92139	0.0991821	0.000305176	
6.92261	0.0946045	0.000152588	
6.922	0.0915527	0.000152588	
6.922	0.0888062	0.000152588	
6.92139	0.0866699	-0.000762939	
6.92169	0.0845337	0.000305176	
6.92078	0.0799561	0.000305176	
6.91895	0.0772095	0.000152588	
6.91742	0.0756836	0.000457764	
6.9162	0.0704956	0	
6.91681	0.0686646	0.000305176	
6.9165	0.0653076	0.00106812	
6.9165	0.0631714	0.000915527	
6.91711	0.06073	0.000610352	
6.91681	0.055542	0.000915527	
6.91681	0.0534058	0.000457764	
6.91711	0.0509644	0.000457764	
6.91681	0.0460815	0.000152588	
6.9165	0.0439453	0.000610352	
6.9162	0.0405884	0.000457764	
6.91681	0.038147	0.000457764	
6.9165	0.0357056	0.000152588	
6.91589	0.0335693	-0.000305176	
6.91681	0.0314331	0.000915527	
6.9165	0.0268555	0.00137329	
6.91711	0.0247192	0.000762939	
6.91711	0.0213623	0.000610352	
6.91711	0.0195313	0.000457764	
6.91681	0.0161743	0.000762939	
6.9162	0.0143433	0.000915527	
6.9162	0.0112915	0	
6.91681	0.00640869	-0.000305176	
6.91681	0.00457764	-0.000305176	
6.91589	0.0012207	0.000762939	
6.91711	-0.000305176	0	
6.91711	-0.00335693	0.000457764	
6.91681	-0.00518799	0.000152588	
6.91681	-0.00793457	0.000610352	
6.9165	-0.0100708	0.000305176	
6.91681	-0.0128174	0.000305176	
6.91711	-0.0152588	0.000457764	
6.91742	-0.0183105	0.000457764	
6.91681	-0.0222778	0.000152588	
6.91681	-0.0250244	0.000152588	
6.91711	-0.0280762	-0.000152588	
6.91711	-0.0296021	-0.000152588	
6.91681	-0.0323486	0.000457764	
6.91681	-0.03479	0	
6.9165	-0.0378418	0.000152588	
6.9165	-0.0396729	0	
6.91681	-0.0427246	0.000610352	
6.91742	-0.0445557	0.0012207	
6.91711	-0.0476074	0.000762939	
6.91589	-0.0494385	0.000610352	
6.91681	-0.0531006	0.000762939	
6.91681	-0.0543213	0.000457764	
6.9162	-0.0576782	0.000762939	
6.91589	-0.0592041	0.000152588	
6.9165	-0.0613403	0.000305176	
6.9165	-0.0643921	0.000305176	
6.91345	-0.0646973	0.000762939	
6.91223	-0.0668335	0.000610352	
6.91193	-0.0695801	0.000152588	
6.91193	-0.0717163	0.00106812	
6.91193	-0.0741577	0.00152588	
6.91132	-0.0765991	0.000610352	
6.91223	-0.0787354	0.000762939	
6.91162	-0.0820923	0.000457764	
6.91162	-0.0845337	0.000762939	
6.91223	-0.0860596	0.000762939	
6.91193	-0.088501	0	
6.91162	-0.0918579	-0.000457764	
6.91162	-0.093689	-0.000610352	
6.91162	-0.0939941	0.000610352	
6.91162	-0.0961304	0	
6.91162	-0.0985718	0.000305176	
6.91162	-0.101624	0.000457764	
6.91223	-0.103455	0.000305176	
6.91193	-0.106506	0.000152588	
6.91162	-0.108948	0.000457764	
6.91162	-0.108643	0	
6.91162	-0.111084	0	
6.91162	-0.11322	0	
6.91223	-0.115356	0.000305176	
6.91223	-0.118408	-0.000610352	
6.91193	-0.12085	-0.000152588	
6.91162	-0.123291	0	
6.91162	-0.123901	0.000152588	
6.91193	-0.126038	0	
6.91132	-0.128784	0.000152588	
6.91193	-0.130005	0.000305176	
6.91162	-0.132751	0.00137329	
6.91223	-0.132751	0.000610352	
6.91162	-0.135193	0.000762939	
6.91193	-0.137634	0.000762939	
6.91132	-0.140381	0.000152588	
6.91193	-0.142517	0.000305176	
6.91223	-0.143433	0.000305176	
6.91193	-0.145569	0.000457764	
6.91101	-0.14801	0.000457764	
6.91162	-0.150146	0.000305176	
6.91223	-0.152283	0.000457764	
6.91193	-0.152893	0.000305176	
6.91162	-0.155334	0.000762939	
6.91162	-0.157166	0.00106812	
6.91254	-0.157776	0.000762939	
6.91162	-0.159912	0.000305176	
6.91162	-0.161438	0.000457764	
6.91162	-0.1651	0.000457764	
6.91162	-0.167236	0.00106812	
6.90826	-0.167236	0.000152588	
6.90765	-0.169678	-0.000152588	
6.90704	-0.172119	-0.000610352	
6.90674	-0.172119	0.000457764	
6.90704	-0.175171	-0.000305176	
6.90735	-0.177612	0.000152588	
6.90704	-0.177307	0	
6.90735	-0.179749	0.000457764	
6.90704	-0.181885	0.000457764	
6.90704	-0.183716	0.000457764	
6.90704	-0.186768	0.000305176	
6.90704	-0.187683	0.000457764	
6.90674	-0.189819	0	
6.90643	-0.19104	0.000610352	
6.90704	-0.192261	-0.000152588	
6.90674	-0.194397	0	
6.90674	-0.197449	0.000152588	
6.90704	-0.197449	0	
6.90704	-0.199585	-0.000152588	
6.90674	-0.202026	0	
6.90674	-0.202332	0.000762939	
6.90704	-0.204163	0.00137329	
6.90735	-0.205994	0.000762939	
6.90643	-0.206909	0.000457764	
6.90613	-0.209045	0.000915527	
6.90735	-0.211182	0.000152588	
6.90674	-0.212402	0.000152588	
6.90735	-0.213623	0.000152588	
6.90796	-0.216064	0.000152588	
6.90613	-0.21698	0.000457764	
6.90674	-0.218506	0.000457764	
6.90704	-0.220947	0.000152588	
6.90674	-0.222168	0	
6.90704	-0.223083	0.000762939	
6.90704	-0.22583	0.0012207	
6.90674	-0.227356	0.000915527	
6.90796	-0.228882	0.000152588	
6.90674	-0.231018	0.000610352	
6.90643	-0.231323	0.000762939	
6.90704	-0.233154	0.000762939	
6.90735	-0.235901	0.000152588	
6.90674	-0.236511	-0.000305176	
6.90765	-0.238647	-0.000457764	
6.90704	-0.239868	0.000457764	
6.90704	-0.241394	0	
6.90735	-0.241089	-0.000152588	
6.90674	-0.243835	-0.000152588	
6.90674	-0.246582	0.000457764	
6.90674	-0.246277	0.000457764	
6.90369	-0.248413	0.000152588	
6.90277	-0.249939	-0.000152588	
6.90216	-0.25177	0.000610352	
6.90186	-0.253296	0	
6.90186	-0.255127	0.000152588	
6.90216	-0.255737	-0.000152588	
6.90186	-0.255737	-0.000152588	
6.90247	-0.257874	0.000152588	
6.90155	-0.26062	0	
6.90186	-0.26062	0.000305176	
6.90155	-0.263062	0.000152588	
6.90155	-0.265198	0.000762939	
6.90216	-0.265808	0.00137329	
6.90247	-0.267334	0.000762939	
6.90216	-0.270386	0.000762939	
6.90277	-0.270386	0.000457764	
6.90216	-0.270691	0.000610352	
6.90186	-0.272522	0.000305176	
6.90277	-0.274963	0.000457764	
6.90247	-0.275574	0.000610352	
6.90216	-0.278015	0.000305176	
6.90216	-0.279846	0.000762939	
6.90216	-0.280151	0.000457764	
6.90216	-0.280151	0.000305176	
6.90247	-0.282593	0.000762939	
6.90155	-0.284729	0.0012207	
6.90247	-0.28595	0.000610352	
6.90155	-0.287476	0.000762939	
6.90186	-0.289612	0.000457764	
6.90186	-0.289917	0.000610352	
6.90155	-0.290527	0.000305176	
6.90186	-0.292664	0.000305176	
6.90155	-0.2948	-0.000305176	
6.90125	-0.29541	-0.000305176	
6.90247	-0.297241	0.000610352	
6.90277	-0.299683	0.000305176	
6.90216	-0.299683	0.000457764	
6.90186	-0.299377	0	
6.90186	-0.30304	0.000457764	
6.90155	-0.304565	0.000457764	
6.90216	-0.304871	0.000457764	
6.90186	-0.304871	0	
6.90186	-0.307312	0.000305176	
6.90216	-0.308838	-0.000152588	
6.90216	-0.310059	0.000610352	
6.90186	-0.31189	-0.000457764	
6.90216	-0.314331	0	
6.90186	-0.314331	0.000305176	
6.89819	-0.314636	0.000152588	
6.89758	-0.316162	0.000152588	
6.89667	-0.319214	0.000152588	
6.89697	-0.319519	0.000457764	
6.89697	-0.319214	0.00106812	
6.89667	-0.32135	0.000762939	
6.89667	-0.323486	0.000457764	
6.89697	-0.324097	0.000457764	
6.89636	-0.323792	0.000457764	
6.89697	-0.326538	0.000457764	
6.89728	-0.328979	0.000152588	
6.89697	-0.329285	0.000610352	
6.89758	-0.32959	0.000152588	
6.89697	-0.331421	0.000457764	
6.89728	-0.333557	0.000457764	
6.89728	-0.333862	0	
6.89758	-0.335999	0.000610352	
6.89636	-0.338745	0.00152588	
6.89697	-0.33905	0.000915527	
6.89667	-0.33905	0.000762939	
6.89697	-0.341492	0.000610352	
6.89697	-0.343323	0.000762939	
6.89728	-0.343933	0.000762939	
6.89728	-0.343628	0	
6.89728	-0.346069	-0.000610352	
6.89697	-0.348511	-0.000610352	
6.89636	-0.349121	0.000762939	
6.89728	-0.349426	0.000152588	
6.89728	-0.351257	0.000305176	
6.89728	-0.353394	0.000457764	
6.89697	-0.354004	0.000610352	
6.89728	-0.353394	0.000457764	
6.89728	-0.35675	0.000762939	
6.89758	-0.358276	0	
6.89697	-0.358887	0.000152588	
6.89728	-0.358582	0.000305176	
6.89728	-0.361023	0.000457764	
6.89697	-0.363464	-0.000305176	
6.89758	-0.36377	0.000152588	
6.89667	-0.36377	0.000152588	
6.89667	-0.366211	0.000152588	
6.89758	-0.367737	0.000610352	
6.89758	-0.368347	0	
6.89697	-0.368652	0.000305176	
6.89697	-0.371704	0.0012207	
6.89728	-0.37262	0.00106812	
6.89697	-0.373535	0.000305176	
6.89697	-0.372925	0.000762939	
6.89331	-0.375671	0.000457764	
6.8924	-0.377502	0.000610352	
6.8927	-0.379944	0.000762939	
6.89209	-0.379028	0.000152588	
6.89209	-0.381165	0.000305176	
6.89117	-0.383301	0.000762939	
6.89209	-0.383301	0.000305176	
6.89178	-0.383911	0	
6.89178	-0.386047	0.000762939	
6.89209	-0.387878	0.00106812	
6.8924	-0.387878	0.00106812	
6.89117	-0.388489	0.000915527	
6.89148	-0.39032	0.000610352	
6.89178	-0.392151	0.000610352	
6.8924	-0.393066	0.000762939	
6.8924	-0.392456	0.000457764	
6.89209	-0.395508	-0.000305176	
6.89178	-0.397644	-0.000610352	
6.89178	-0.397949	0.000457764	
6.89148	-0.397644	0	
6.89209	-0.400085	0.000305176	
6.89209	-0.402527	0.000152588	
6.89209	-0.402832	0	
6.8924	-0.402832	0.000762939	
6.8924	-0.403137	0.000305176	
6.8927	-0.405273	0.000152588	
6.89209	-0.407715	0.000152588	
6.89209	-0.40802	0.000305176	
6.89209	-0.40802	0.000305176	
6.8924	-0.410461	-0.000305176	
6.89178	-0.411987	0	
6.89209	-0.413208	0	
6.89209	-0.412903	0	
6.89209	-0.415649	0.000152588	
6.89209	-0.417175	0.000305176	
6.8924	-0.417175	0.000610352	
6.89178	-0.417786	0.00137329	
6.8924	-0.420227	0.00106812	
6.8927	-0.422058	0.000915527	
6.8924	-0.422058	0.000457764	
6.8927	-0.422363	0.000457764	
6.89178	-0.4245	0.000305176	
6.89209	-0.427551	0.000305176	
6.89178	-0.426941	0.000610352	
6.8924	-0.427246	-0.000152588	
6.89209	-0.429382	0.000762939	
6.8924	-0.431824	0.000305176	
6.88843	-0.432434	0	
6.88721	-0.432739	0.000762939	
6.88721	-0.434265	0.00106812	
6.88751	-0.436707	0.000457764	
6.8869	-0.437622	0.000457764	
6.8866	-0.436707	0.000457764	
6.88721	-0.436707	0.000610352	
6.88751	-0.439453	0.000915527	
6.8869	-0.441589	0.000152588	
6.88721	-0.442505	-0.000610352	
6.88721	-0.441895	-0.000305176	
6.88782	-0.444336	0.000457764	
6.88721	-0.446472	0	
6.88751	-0.446777	0	
6.88721	-0.446777	0.000152588	
6.8866	-0.449524	0.000610352	
6.8869	-0.451965	0.000915527	
6.8869	-0.45166	0.000305176	
6.88721	-0.45166	0.000152588	
6.8869	-0.454102	0.000305176	
6.88721	-0.456848	0.000152588	
6.88721	-0.457458	0	
6.8869	-0.456848	-0.000305176	
6.88751	-0.4599	0	
6.88721	-0.461121	-0.000152588	
6.88751	-0.462036	0.000152588	
6.88721	-0.462341	0.000305176	
6.8869	-0.464783	0.000152588	
6.8866	-0.466309	0.000457764	
6.88782	-0.466614	0.00137329	
6.8869	-0.466919	0.0012207	
6.88721	-0.467224	0.00106812	
6.88721	-0.46875	0.000610352	
6.88721	-0.470886	0.000305176	
6.88751	-0.471497	0.000152588	
6.88721	-0.471191	0.000305176	
6.88751	-0.473633	0.000457764	
6.8866	-0.476074	0.000152588	
6.88721	-0.475769	0.000305176	
6.88751	-0.476379	0.000305176	
6.8869	-0.47821	-0.000152588	
6.8869	-0.480652	0.00106812	
6.88721	-0.481262	0.00137329	
6.88721	-0.480957	0.000457764	
6.88416	-0.483704	0.000305176	
6.88293	-0.48584	0.000762939	
6.88202	-0.485535	0.000457764	
6.88202	-0.486145	0.000762939	
6.88263	-0.486145	-0.000152588	
6.88232	-0.488892	-0.000305176	
6.88171	-0.491028	-0.000610352	
6.88202	-0.491028	0.000305176	
6.88324	-0.491028	0.000152588	
6.88202	-0.492554	0.000457764	
6.88232	-0.495911	0.000152588	
6.88232	-0.495911	0.000457764	
6.88202	-0.495605	0.000762939	
6.88202	-0.498657	0.000610352	
6.88232	-0.500488	0	
6.88232	-0.500488	0.000457764	
6.88232	-0.501709	0.000152588	
6.88263	-0.503235	0.000457764	
6.88202	-0.50415	-0.000610352	
6.88232	-0.505676	0	
6.88232	-0.505981	0	
6.88202	-0.505981	-0.000152588	
6.88293	-0.508423	0	
6.88202	-0.510254	0	
6.88263	-0.510559	0.000305176	
6.88171	-0.510559	0.00137329	
6.88202	-0.513	0.000610352	
6.88202	-0.515137	0.0012207	
6.88232	-0.515137	0.000152588	
6.88232	-0.516357	0.000762939	
6.88202	-0.518494	0.000762939	
6.88202	-0.52002	0.000457764	
6.88232	-0.52063	0.000305176	
6.88232	-0.520935	0.000305176	
6.88202	-0.523071	0.000305176	
6.88202	-0.524902	0.000305176	
6.88232	-0.524902	0.000152588	
6.88263	-0.524902	0.00106812	
6.88232	-0.525513	0.00137329	
6.88263	-0.527649	0.000762939	
6.88232	-0.53009	0.000305176	
6.88171	-0.530396	0.000457764	
6.87927	-0.530396	0.000610352	
6.87775	-0.532837	0.000610352	
6.87805	-0.534363	0.000305176	
6.87683	-0.535583	-0.000457764	
6.87775	-0.534973	-0.000305176	
6.87714	-0.535889	0.000610352	
6.87714	-0.53772	0.000152588	
6.87714	-0.539246	0.000152588	
6.87775	-0.539856	0.000457764	
6.87836	-0.540466	0.000610352	
6.87683	-0.542603	0.000457764	
6.87714	-0.544434	0.000152588	
6.87744	-0.545349	0.000305176	
6.87744	-0.545044	0.000457764	
6.87775	-0.546875	0.000152588	
6.87714	-0.549316	0	
6.87714	-0.550537	-0.000610352	
6.87775	-0.551147	-0.000152588	
6.87775	-0.549927	0.000305176	
6.87714	-0.553284	0	
6.87775	-0.553589	0	
6.87744	-0.55481	-0.000152588	
6.87653	-0.553894	0.000457764	
6.87714	-0.557556	0.00106812	
6.87714	-0.559082	0.000762939	
6.87683	-0.560303	0.00137329	
6.87714	-0.559692	0.000915527	
6.87775	-0.560608	0.000305176	
6.87714	-0.562439	0.000305176	
6.87714	-0.56427	0.000305176	
6.87744	-0.564575	0.000152588	
6.87775	-0.56488	0.000305176	
6.87805	-0.567017	0.000457764	
6.87714	-0.569458	0.000610352	
6.87714	-0.569153	0.000152588	
6.87683	-0.569458	0.00106812	
6.87714	-0.569458	0.00106812	
6.87714	-0.571289	0.000305176	
6.87683	-0.574036	0.000152588	
6.87714	-0.574646	0.000762939	
6.87653	-0.574646	0.000762939	
6.87469	-0.575867	0.000762939	
6.87256	-0.578613	0.000305176	
6.87195	-0.579529	-0.000457764	
6.87286	-0.580139	-0.000762939	
6.87195	-0.582275	0.000762939	
6.87286	-0.584412	0.000152588	
6.87317	-0.584412	0.000610352	
6.87225	-0.585327	0.000305176	
6.87225	-0.584412	0.000305176	
6.87256	-0.587158	0.000305176	
6.87256	-0.588684	0.000305176	
6.87317	-0.59021	0.000305176	
6.87256	-0.589294	0.000305176	
6.87256	-0.589294	0.000152588	
6.87225	-0.592041	0.000305176	
6.87195	-0.593872	-0.000762939	
6.87195	-0.594788	-0.000152588	
6.87256	-0.593567	0.000152588	
6.87225	-0.596619	0	
6.87256	-0.59906	0.000152588	
6.87256	-0.59906	0	
6.87256	-0.59967	0.000152588	
6.87195	-0.59906	0.00137329	
6.87164	-0.601501	0.0012207	
6.87286	-0.603027	0.000762939	
6.87317	-0.603943	0.000762939	
6.87317	-0.604858	0.000152588	
6.87286	-0.604553	0.000762939	
6.87256	-0.606079	0.000305176	
6.87256	-0.60791	0.000457764	
6.87256	-0.608826	0.000305176	
6.87256	-0.609131	0.000762939	
6.87317	-0.608826	0.000610352	
6.87286	-0.611267	-0.000152588	
6.87286	-0.613403	0.0012207	
6.87378	-0.614014	0.00106812	
6.87225	-0.613708	0.000610352	
6.87256	-0.614014	0.000457764	
6.87195	-0.61615	0.000610352	
6.87195	-0.618591	0.000610352	
6.8692	-0.618896	0.000610352	
6.8689	-0.618591	0.000152588	
6.86676	-0.618591	-0.000457764	
6.86768	-0.621033	-0.000610352	
6.86737	-0.623169	0.000457764	
6.86768	-0.623779	0	
6.86768	-0.624084	0.000457764	
6.86768	-0.624084	0.000457764	
6.86768	-0.62561	0.000457764	
6.86737	-0.627441	0.000610352	
6.86737	-0.627441	0.000457764	
6.86737	-0.628662	0.000915527	
6.86737	-0.628357	0.000152588	
6.86737	-0.630188	0	
6.86737	-0.63324	0.000305176	
6.86707	-0.632935	-0.000457764	
6.86737	-0.63324	-0.000152588	
6.86707	-0.632324	0.000305176	
6.86676	-0.635986	0	
6.86798	-0.637512	0.000152588	
6.86707	-0.638733	0.000152588	
6.86768	-0.638123	0.000152588	
6.86707	-0.638123	0.00137329	
6.86768	-0.640259	0.000610352	
6.86768	-0.642395	0.000762939	
6.86737	-0.6427	0.000305176	
6.86859	-0.6427	0.000457764	
6.86676	-0.643311	0.000305176	
6.86768	-0.646057	0.000305176	
6.86829	-0.647583	0.000305176	
6.86768	-0.648499	0.000152588	
6.86737	-0.647888	0.000610352	
6.86737	-0.648499	0.000610352	
6.86768	-0.65033	-0.000305176	
6.86737	-0.652161	0.000915527	
6.86798	-0.653076	0.000915527	
6.86676	-0.653076	0.000915527	
6.86432	-0.652771	0.000457764	
6.86249	-0.653076	0.000610352	
6.86249	-0.654907	0.000457764	
6.86279	-0.657349	0.000610352	
6.86279	-0.658569	0.000152588	
6.86279	-0.657654	0	
6.86279	-0.657349	-0.000762939	
6.86218	-0.65918	0.000457764	
6.86279	-0.662231	-0.000305176	
6.86279	-0.662231	0.000152588	
6.8631	-0.663147	0	
6.8631	-0.662842	0.000457764	
6.86279	-0.662842	0.000305176	
6.86188	-0.664368	0.000305176	
6.86249	-0.667419	0.000305176	
6.86218	-0.667725	0.000305176	
6.86279	-0.66803	0.000152588	
6.86218	-0.667725	0.000152588	
6.86218	-0.669861	-0.000610352	
6.86218	-0.671997	-0.000152588	
6.86279	-0.671997	-0.000152588	
6.86279	-0.672913	0	
6.86249	-0.673218	0	
6.86249	-0.672913	-0.000152588	
6.86218	-0.674438	0.000305176	
6.86279	-0.677795	0.000915527	
6.86249	-0.67688	0.000915527	
6.86279	-0.678406	0.000762939	
6.86279	-0.677185	0.000457764	
6.8634	-0.67749	0.000152588	
6.86279	-0.679932	0.000457764	
6.86249	-0.681763	0.000457764	
6.8634	-0.682373	0	
6.86249	-0.682983	0.000305176	
6.85944	-0.682678	0.000457764	
6.85791	-0.682678	0.000457764	
6.8573	-0.684509	0	
6.85791	-0.687256	0.000915527	
6.8576	-0.686951	0.0012207	
6.85791	-0.687561	0.000915527	
6.8573	-0.687561	0.000152588	
6.85791	-0.687866	0.000457764	
6.85791	-0.689392	0.000457764	
6.8576	-0.691528	0.000762939	
6.8576	-0.692749	0.000305176	
6.8576	-0.692444	-0.000152588	
6.8573	-0.692444	-0.000915527	
6.8576	-0.693054	0.000610352	
6.85791	-0.692139	0.000152588	
6.85791	-0.69458	0	
6.85791	-0.697021	0.000305176	
6.8576	-0.697327	0.000152588	
6.85791	-0.697327	0.000457764	
6.85791	-0.697327	0.000457764	
6.8573	-0.697632	0.000152588	
6.8576	-0.699158	0.000457764	
6.85822	-0.701294	0	
6.8576	-0.701599	0.000305176	
6.85822	-0.701904	-0.000457764	
6.8576	-0.701294	0.000152588	
6.8576	-0.702209	0.000305176	
6.85791	-0.701904	0	
6.8576	-0.703735	0.000152588	
6.85822	-0.706177	0.000305176	
6.85791	-0.706787	0.000457764	
6.85638	-0.707092	0.0012207	
6.85455	-0.706482	0.000762939	
6.85272	-0.706787	0.000915527	
6.85303	-0.706482	0.000610352	
6.85272	-0.707092	0.000305176	
6.85303	-0.709229	0.000762939	
6.85272	-0.71106	0.000457764	
6.85272	-0.71167	-0.000152588	
6.85242	-0.711975	0.000152588	
6.85272	-0.71167	0.000457764	
6.85303	-0.711975	0.000305176	
6.85272	-0.71167	0.000305176	
6.85211	-0.71167	0.000915527	
6.85211	-0.71167	0.000915527	
6.85303	-0.714111	0.000915527	
6.85242	-0.716553	0.000762939	
6.85211	-0.716858	0.00106812	
6.85272	-0.716248	0.000762939	
6.85211	-0.716553	0.000762939	
6.85272	-0.716553	0.000305176	
6.85181	-0.716858	-0.000457764	
6.85303	-0.717163	-0.000610352	
6.85242	-0.716553	0.000305176	
6.85272	-0.717163	0.000152588	
6.85272	-0.716553	0.000305176	
6.85211	-0.718689	0.000457764	
6.85303	-0.72113	0.000457764	
6.85272	-0.721436	0.000457764	
6.85242	-0.722046	0.000610352	
6.85242	-0.722046	0.000305176	
6.85242	-0.721436	0.000305176	
6.84906	-0.72113	0.000305176	
6.84845	-0.721741	0.000610352	
6.84753	-0.721741	-0.000305176	
6.84753	-0.721741	0.000152588	
6.84845	-0.721741	0	
6.84845	-0.721741	0.000457764	
6.84784	-0.721436	0.000152588	
6.84753	-0.721436	0	
6.84814	-0.722656	0.000152588	
6.84753	-0.721436	0.000915527	
6.84814	-0.72113	0.00106812	
6.84814	-0.72113	0.00106812	
6.84753	-0.722046	0.000610352	
6.84814	-0.72113	0.000915527	
6.84845	-0.721741	0.000457764	
6.84784	-0.721741	0.000152588	
6.84784	-0.721436	0.000305176	
6.84784	-0.72113	0.000152588	
6.84753	-0.721436	0.000762939	
6.84753	-0.722046	0.000305176	
6.84723	-0.721741	-0.000152588	
6.84784	-0.721436	0.000915527	
6.84784	-0.721436	0.0012207	
6.84662	-0.721741	0.000610352	
6.84784	-0.722046	0	
6.84814	-0.72113	0.000762939	
6.84662	-0.72113	0.000610352	
6.84753	-0.72113	0.000762939	
6.84723	-0.721741	0.000305176	
6.84418	-0.722046	-0.000152588	
6.84296	-0.721436	-0.000915527	
6.84265	-0.72113	0.000152588	
6.84265	-0.721741	0.000152588	
6.84296	-0.721741	0	
6.84296	-0.722046	0.000152588	
6.84296	-0.719299	0.000610352	
6.84326	-0.717163	0.000762939	
6.84235	-0.717163	0.000152588	
6.84326	-0.716248	0.000152588	
6.84265	-0.717163	0.000305176	
6.84296	-0.716858	0	
6.84296	-0.717163	0	
6.84265	-0.714722	-0.000457764	
6.84235	-0.712585	0.000457764	
6.84296	-0.711365	0	
6.84296	-0.711365	0.000305176	
6.84296	-0.711975	-0.000152588	
6.84235	-0.71167	-0.000152588	
6.84265	-0.709534	0.000152588	
6.84296	-0.707397	0.0012207	
6.84326	-0.707397	0.00106812	
6.84296	-0.706482	0.000915527	
6.84296	-0.707703	0.000762939	
6.84296	-0.704956	0.000762939	
6.84296	-0.701904	0.000457764	
6.84265	-0.701599	0.000305176	
6.83899	-0.701904	0.000457764	
6.83716	-0.699768	0.000152588	
6.83746	-0.697632	0.000610352	
6.83807	-0.697632	0.000305176	
6.83807	-0.69458	0.000152588	
6.83807	-0.692444	0.000915527	
6.83777	-0.692139	0.000915527	
6.83746	-0.692139	0.000762939	
6.83746	-0.690613	0.000457764	
6.83777	-0.687866	0.000610352	
6.83746	-0.687256	0.000457764	
6.83868	-0.68512	0.000762939	
6.83838	-0.682678	0.000457764	
6.83807	-0.680237	-0.000305176	
6.83746	-0.678101	-0.000762939	
6.83807	-0.677795	0.000305176	
6.83807	-0.675659	0.000152588	
6.83777	-0.673828	0.000152588	
6.83746	-0.670471	-0.000152588	
6.83807	-0.668945	0.000610352	
6.83807	-0.66803	0.000610352	
6.83746	-0.665283	0.000457764	
6.83777	-0.663147	0.000457764	
6.83777	-0.6604	0.000457764	
6.83777	-0.658264	0	
6.83716	-0.655518	0.000152588	
6.83411	-0.653381	-0.000457764	
6.83228	-0.65155	0	
6.83258	-0.648804	0.000152588	
6.83319	-0.646057	0.000305176	
6.83289	-0.644226	0.000305176	
6.83289	-0.640869	0.000305176	
6.83258	-0.636292	0.000152588	
6.83289	-0.634155	0.00137329	
6.83258	-0.631409	0.000915527	
6.83319	-0.629272	0.000457764	
6.83319	-0.625916	0.000457764	
6.83289	-0.621948	0.000915527	
6.83258	-0.619202	0.000610352	
6.83289	-0.616455	0.000305176	
6.8335	-0.612183	0.000305176	
6.83228	-0.609436	0.000457764	
6.83289	-0.606689	0.000457764	
6.83258	-0.602417	0.000305176	
6.83258	-0.599976	0	
6.83289	-0.597229	0.000915527	
6.83258	-0.592651	0.0012207	
6.83289	-0.589905	0.000915527	
6.83319	-0.587158	0.000762939	
6.83258	-0.582581	0.000610352	
6.83197	-0.578003	0.000457764	
6.83014	-0.573425	0.000762939	
6.828	-0.569763	0.000610352	
6.82709	-0.568237	-0.000305176	
6.82709	-0.562744	-0.000610352	
6.828	-0.557861	0.000305176	
6.82831	-0.553589	0.000457764	
6.8277	-0.550232	0.000305176	
6.8277	-0.547791	-0.000152588	
6.8277	-0.543518	0.000305176	
6.82892	-0.539551	0.000457764	
6.82739	-0.533142	0.000457764	
6.82831	-0.528564	0.000305176	
6.8277	-0.523682	0.000457764	
6.82831	-0.518799	0.000305176	
6.82831	-0.514221	0.000152588	
6.828	-0.508423	-0.000152588	
6.828	-0.50415	0.000152588	
6.8277	-0.499878	-0.000152588	
6.8277	-0.49469	0.000152588	
6.8277	-0.490417	0.000152588	
6.828	-0.484619	-0.000152588	
6.8277	-0.479126	0.000152588	
6.82739	-0.474548	0.0012207	
6.82739	-0.46936	0.000762939	
6.82495	-0.465393	0.00106812	
6.82312	-0.4599	0.000457764	
6.82251	-0.455017	0.000762939	
6.82312	-0.450745	0.000610352	
6.82343	-0.445557	0.000610352	
6.82312	-0.440674	0.000305176	
6.82343	-0.436096	0.000457764	
6.82281	-0.430603	0.000305176	
6.82312	-0.423584	0.000457764	
6.82343	-0.41626	-0.000152588	
6.82281	-0.410767	0.000915527	
6.82312	-0.406189	0.0012207	
6.82312	-0.401917	0.000610352	
6.8222	-0.396729	0.000457764	
6.82312	-0.388489	0.000457764	
6.82251	-0.38208	0.000610352	
6.82312	-0.376587	0.000915527	
6.82312	-0.371094	0.000152588	
6.82312	-0.36499	-0.000457764	
6.82281	-0.358276	-0.000610352	
6.82281	-0.352173	0.000305176	
6.82312	-0.34729	-0.000152588	
6.82373	-0.340271	0	
6.82312	-0.332642	-0.000152588	
6.81946	-0.327148	0.000305176	
6.81885	-0.320435	0.000305176	
6.81732	-0.313721	0.000457764	
6.81793	-0.308533	0.000457764	
6.81763	-0.301514	0.000152588	
6.81793	-0.294189	0.000152588	
6.81824	-0.288086	0	
6.81824	-0.281067	-0.000152588	
6.81793	-0.274048	0	
6.81702	-0.269775	0	
6.81763	-0.261841	0	
6.81854	-0.254517	-0.000152588	
6.81854	-0.246277	0.000305176	
6.81793	-0.239868	0.000152588	
6.81824	-0.23407	0.0012207	
6.81885	-0.226746	0.0012207	
6.81854	-0.220337	0.00106812	
6.81793	-0.212402	0.000610352	
6.81763	-0.205994	0.000305176	
6.81763	-0.198059	0.000305176	
6.81793	-0.190735	0.000305176	
6.81824	-0.183411	0.000152588	
6.81763	-0.177002	0.000457764	
6.81854	-0.167847	0.000305176	
6.81488	-0.161133	0.000610352	
6.81335	-0.154114	-0.000152588	
6.81305	-0.14679	0.00106812	
6.81335	-0.139465	0.000915527	
6.81396	-0.132446	0.000457764	
6.81244	-0.124512	0.000610352	
6.81305	-0.118103	0.000915527	
6.81305	-0.110168	0.000610352	
6.81335	-0.102539	0.000610352	
6.81305	-0.0949097	0.000305176	
6.81305	-0.088501	-0.000305176	
6.81335	-0.0805664	-0.000610352	
6.81244	-0.0738525	0.000152588	
6.81335	-0.0650024	0	
6.81305	-0.0564575	0.000152588	
6.81396	-0.0488281	0.000152588	
6.81274	-0.0411987	0.000305176	
6.81335	-0.0335693	0.000610352	
6.81274	-0.0265503	0.000152588	
6.81244	-0.0198364	0	
6.81305	-0.0115967	0	
6.81274	-0.00274658	0.000305176	
6.81244	0.00457764	0.000457764	
6.81	0.012207	-0.000152588	
6.80786	0.0198364	0	
6.80756	0.0271606	0	
6.80847	0.0366211	0.000152588	
6.80817	0.0439453	-0.000152588	
6.80756	0.0518799	0	
6.80847	0.0613403	0.000305176	
6.80817	0.0683594	0.00152588	
6.80817	0.0772095	0.000915527	
6.80786	0.0830078	0.000915527	
6.80847	0.0909424	0.00106812	
6.80756	0.0994873	0.000610352	
6.80847	0.106506	0.000610352	
6.80878	0.115051	0.000762939	
6.80847	0.124817	0.000457764	
6.80847	0.132446	0.000305176	
6.80847	0.139771	0.000762939	
6.80756	0.1474	0.000305176	
6.80756	0.155029	0	
6.80847	0.162964	0.00106812	
6.80756	0.171204	0.000762939	
6.80786	0.178833	0.000457764	
6.80725	0.187988	0.000457764	
6.8045	0.195313	0.000610352	
6.8042	0.203857	0.000915527	
6.80328	0.212708	0.000610352	
6.80298	0.220032	0.000457764	
6.80328	0.227661	-0.000152588	
6.80359	0.23468	-0.000610352	
6.80328	0.242615	0.000305176	
6.80267	0.25177	0	
6.80328	0.259094	0.000457764	
6.80298	0.267334	-0.000305176	
6.80298	0.275574	0.000152588	
6.80359	0.283813	0.000457764	
6.80298	0.291443	0.000305176	
6.80298	0.298767	0	
6.80359	0.307007	0.000152588	
6.80298	0.315247	0.000152588	
6.80298	0.322571	0.000305176	
6.80267	0.330505	0	
6.80328	0.338135	0.000152588	
6.80359	0.345459	0.000152588	
6.80237	0.354919	0	
6.80298	0.362549	0.000152588	
6.80359	0.369568	0	
6.80298	0.377502	0.000152588	
6.79993	0.384827	0.00106812	
6.79871	0.393982	0.000762939	
6.7984	0.401306	0.000762939	
6.79871	0.40863	0.000610352	
6.7984	0.416565	0.000762939	
6.79871	0.423584	0.000762939	
6.7981	0.430908	0.000152588	
6.7981	0.438843	0	
6.7984	0.447693	0.000305176	
6.79871	0.455322	0.000610352	
6.79871	0.463257	0.000457764	
6.79871	0.469666	0	
6.7981	0.478516	0.000762939	
6.7981	0.484619	0.00106812	
6.79871	0.492859	0.000762939	
6.7981	0.499878	0.000610352	
6.7981	0.507507	0.000762939	
6.79779	0.514221	0.000610352	
6.7984	0.522461	0.000762939	
6.7981	0.52887	0.000457764	
6.7981	0.535889	-0.000305176	
6.79901	0.544128	-0.000762939	
6.79749	0.551147	0.000457764	
6.79535	0.559082	0	
6.79352	0.566101	0.000457764	
6.79321	0.573425	-0.000152588	
6.79321	0.58136	0.000152588	
6.79291	0.587769	0.000457764	
6.79352	0.596619	0.000610352	
6.79352	0.602417	0.000152588	
6.79352	0.610352	0.000152588	
6.79291	0.617065	0.000457764	
6.79352	0.622253	-0.000152588	
6.79291	0.630188	-0.000152588	
6.79291	0.636292	0.000152588	
6.79352	0.644836	0	
6.79382	0.65155	0.000152588	
6.79382	0.657043	0	
6.79321	0.664673	0.000152588	
6.79413	0.670776	0.000457764	
6.79382	0.678101	0.000915527	
6.79352	0.686035	0.00106812	
6.79291	0.691223	0.00106812	
6.79352	0.698242	0.000610352	
6.79382	0.705261	0.000762939	
6.7926	0.71106	0.000152588	
6.78986	0.718079	0.000305176	
6.78925	0.725403	0.000305176	
6.78894	0.731506	0.000305176	
6.78894	0.735474	0.000610352	
6.78894	0.742188	0.000610352	
6.78833	0.749817	-0.000152588	
6.78894	0.75531	0.000915527	
6.78833	0.762024	0.000915527	
6.78894	0.769043	0.000762939	
6.78864	0.774841	0.000305176	
6.78894	0.779724	0.000762939	
6.78864	0.786743	0.000762939	
6.78864	0.793762	0.00106812	
6.78833	0.799255	0.000152588	
6.78925	0.804138	-0.000457764	
6.78833	0.808716	-0.00106812	
6.78894	0.816345	0.000305176	
6.78802	0.823059	0.000305176	
6.78864	0.828857	0.000152588	
6.78833	0.834045	0	
6.78894	0.838623	0.000457764	
6.78894	0.843201	0.000762939	
6.78894	0.85144	0.000610352	
6.78558	0.858154	0.000457764	
6.78436	0.862427	0.000457764	
6.78406	0.867615	0.000152588	
6.78345	0.873108	0.000610352	
6.78375	0.877075	-0.000152588	
6.78406	0.882568	-0.000152588	
6.78375	0.887756	0	
6.78436	0.892639	0.000152588	
6.78406	0.897217	-0.000152588	
6.78375	0.90271	-0.000152588	
6.78375	0.906982	0.000152588	
6.78375	0.91217	0.00106812	
6.78375	0.917053	0.00106812	
6.78375	0.921631	0.000762939	
6.78375	0.926514	0.000762939	
6.78375	0.931396	0.000915527	
6.78375	0.93689	0.000457764	
6.78345	0.941772	0.000610352	
6.78406	0.946045	0.000305176	
6.78375	0.950928	0	
6.78375	0.956116	0.000610352	
6.78375	0.961304	0.000152588	
6.78406	0.965881	0.000152588	
6.78345	0.97168	0.000762939	
6.7804	0.975647	0.000762939	
6.77917	0.980835	0.000610352	
6.77887	0.984802	0.000152588	
6.77887	0.988159	0.000610352	
6.77887	0.990906	0.000915527	
6.77917	0.995483	0.000762939	
6.77856	1.00006	0.000305176	
6.77887	1.00586	-0.000305176	
6.77856	1.00952	-0.000762939	
6.77917	1.01257	0	
6.77856	1.01563	0.000152588	
6.77917	1.0199	0	
6.77917	1.02478	0	
6.77887	1.02753	0.000610352	
6.77917	1.03058	0.000610352	
6.77856	1.03485	0.000457764	
6.77917	1.03882	0	
6.77887	1.04248	0.000457764	
6.77917	1.04523	0	
6.78009	1.04919	0.000457764	
6.77887	1.05225	-0.000457764	
6.77887	1.05408	0	
6.77856	1.05927	0	
6.77551	1.06201	-0.000152588	
6.77338	1.06476	0	
6.77429	1.06873	-0.000152588	
6.77338	1.07208	0.000457764	
6.77338	1.07513	0.00106812	
6.77368	1.07941	0.0012207	
6.77399	1.08124	0.000457764	
6.77429	1.08429	0.000457764	
6.77338	1.08643	0.000762939	
6.77368	1.08917	0.000610352	
6.77399	1.091	0.000305176	
6.77429	1.09467	0.000305176	
6.77338	1.0965	0	
6.77429	1.09894	0.000305176	
6.77399	1.10352	0.000152588	
6.77429	1.10474	0	
6.77399	1.10687	0.0012207	
6.77368	1.1084	0.000915527	
6.77429	1.11053	0.000610352	
6.77399	1.11359	0.000305176	
6.77338	1.11603	0.000762939	
6.77399	1.11847	0.000762939	
6.77307	1.1203	0.000610352	
6.77063	1.12274	0.000305176	
6.76849	1.12549	-0.000152588	
6.7688	1.1261	-0.000915527	
6.76819	1.12823	0.000305176	
6.7688	1.13037	0.000305176	
6.76941	1.13098	0.000152588	
6.7691	1.13251	0	
6.7688	1.13556	0.000457764	
6.7691	1.13678	0.000457764	
6.7688	1.138	0.000610352	
6.7691	1.14014	0.000152588	
6.7688	1.14105	0.000457764	
6.7691	1.14197	0.000457764	
6.7691	1.14532	0.000457764	
6.76849	1.14594	0.000152588	
6.7688	1.14563	0.000610352	
6.76971	1.14807	0.000305176	
6.7688	1.1499	0	
6.76941	1.15082	-0.000152588	
6.76849	1.15082	0.000305176	
6.76849	1.15295	0.000152588	
6.7688	1.1554	0.000915527	
6.7688	1.1554	0.000915527	
6.76788	1.15479	0.000762939	
6.76544	1.1557	0.000457764	
6.76422	1.15509	0.00106812	
6.76392	1.15509	0.000610352	
6.76453	1.15784	0.000610352	
6.76392	1.15936	0.000152588	
6.76392	1.15997	0.000152588	
6.76392	1.16028	0.000152588	
6.76361	1.16058	0.000305176	
6.76392	1.15967	-0.000152588	
6.76422	1.16028	0.000915527	
6.76392	1.16028	0.000915527	
6.76331	1.16058	0.000915527	
6.76392	1.15997	0.000457764	
6.76361	1.16058	0.000610352	
6.76392	1.16089	0.00106812	
6.76392	1.16028	0.000915527	
6.76422	1.16058	0.000610352	
6.763	1.16058	-0.000305176	
6.76331	1.16028	-0.000762939	
6.76422	1.16028	0.000305176	
6.76361	1.16028	0.000457764	
6.76361	1.16058	0.000610352	
6.763	1.16028	0	
6.76025	1.15967	0.000305176	
6.75964	1.16028	0.000762939	
6.75934	1.16089	0.000610352	
6.75934	1.15967	0.000305176	
6.75964	1.15997	0.000457764	
6.75873	1.15997	0	
6.75842	1.15875	0.000305176	
6.75903	1.15631	0	
6.75934	1.1554	-0.000152588	
6.75903	1.1557	0.000305176	
6.75903	1.1557	0	
6.75903	1.1554	-0.000305176	
6.75934	1.1554	0.000457764	
6.75873	1.15387	0.000305176	
6.75903	1.15112	0.00137329	
6.75903	1.1499	0.00106812	
6.75964	1.15051	0.000915527	
6.75964	1.14838	0.000610352	
6.75934	1.14624	0.000762939	
6.75934	1.14532	0.000457764	
6.75903	1.14624	0.000457764	
6.75934	1.14624	0.000152588	
6.75903	1.14349	0.000305176	
6.75873	1.14136	0.000457764	
6.75537	1.14075	0.000152588	
6.75415	1.13861	0.000305176	
6.75385	1.13647	0.00106812	
6.75385	1.13556	0.0012207	
6.75446	1.13373	0.000762939	
6.75415	1.13098	0.000762939	
6.75415	1.13129	0.000610352	
6.75415	1.12854	0.000610352	
6.75415	1.12701	0.000762939	
6.75385	1.12579	0.000762939	
6.75354	1.12335	-0.000457764	
6.75446	1.12122	-0.000762939	
6.75415	1.12152	0	
6.75415	1.11908	0.000457764	
6.75385	1.11725	0.000152588	
6.75415	1.11389	0.000152588	
6.75415	1.11176	0.000305176	
6.75446	1.11145	0.000915527	
6.75415	1.1084	0.000457764	
6.75446	1.10718	0	
6.75354	1.10413	0.000305176	
6.75354	1.10199	0.000305176	
6.75385	1.09955	0.000152588	
6.75018	1.09772	-0.000152588	
6.74927	1.0968	0	
6.74896	1.09406	-0.000152588	
6.74866	1.09161	0.000152588	
6.74866	1.08948	0.000457764	
6.74927	1.08734	0.000152588	
6.74927	1.08521	0.000457764	
6.74896	1.08276	0.000915527	
6.74896	1.08032	0.00106812	
6.74896	1.07788	0.000915527	
6.74896	1.07513	0.000305176	
6.74866	1.07239	0.000762939	
6.74957	1.06995	0.000457764	
6.74927	1.06537	0.000152588	
6.74927	1.06262	0.000152588	
6.74927	1.06049	0.000457764	
6.74866	1.05835	0.000305176	
6.74866	1.0553	0.000305176	
6.74896	1.05286	0.000152588	
6.74896	1.05011	0.000915527	
6.74866	1.04614	0.000762939	
6.74896	1.04309	0.000610352	
6.74927	1.04065	0.000762939	
6.74896	1.03851	0.000762939	
6.74622	1.03516	0.000457764	
6.74469	1.03119	0.000762939	
6.74438	1.02875	0.000457764	
6.74377	1.0257	-0.000305176	
6.74438	1.02356	-0.000762939	
6.74438	1.02051	0.000152588	
6.74438	1.01715	0.000305176	
6.74438	1.0144	-0.000152588	
6.74408	1.01074	-0.000152588	
6.74408	1.00677	0.000457764	
6.74469	1.00403	0.000762939	
6.74347	1.00189	0.000762939	
6.74377	0.996399	0	
6.74377	0.994263	0.000457764	
6.74408	0.991516	0.000305176	
6.74469	0.987549	0	
6.74408	0.983887	-0.000152588	
6.74469	0.98175	0	
6.74408	0.977478	0.000152588	
6.74438	0.972595	0.000152588	
6.74408	0.969849	0	
6.74438	0.966492	0.000305176	
6.74408	0.96283	0.000305176	
6.74042	0.959778	0.000762939	
6.74011	0.957642	0.00106812	
6.7395	0.952454	0.000915527	
6.7395	0.947571	0.000457764	
6.73889	0.945435	0.000610352	
6.73981	0.942078	0.000457764	
6.73889	0.93811	0.000305176	
6.73981	0.932922	0.000305176	
6.73859	0.930176	0.000305176	
6.7392	0.928345	0.000610352	
6.73981	0.923767	0.000610352	
6.7392	0.918884	0.000152588	
6.73889	0.915833	0.00106812	
6.73889	0.913696	0.00106812	
6.7392	0.908508	0.000762939	
6.73981	0.90332	0.000305176	
6.7395	0.899353	0.000610352	
6.7395	0.896301	0.000457764	
6.7395	0.893555	0.000762939	
6.7395	0.889282	0.000305176	
6.73981	0.884094	-0.000305176	
6.73889	0.879517	-0.000915527	
6.73615	0.87677	0.000305176	
6.73462	0.873108	0.000152588	
6.73492	0.869751	-0.000152588	
6.73401	0.863953	0.000152588	
6.73462	0.85968	0	
6.7337	0.856934	0.000457764	
6.73462	0.855103	0.000457764	
6.73462	0.849609	0	
6.73401	0.845337	0.000152588	
6.73462	0.840149	0.000305176	
6.73431	0.837097	0.000152588	
6.73431	0.834961	-0.000152588	
6.7334	0.830688	0.000152588	
6.73492	0.825195	0.000305176	
6.73462	0.820618	0	
6.73401	0.815735	0.000305176	
6.7334	0.812988	0.000152588	
6.73462	0.809631	0	
6.73401	0.805969	0.000915527	
6.73431	0.800781	0.00106812	
6.73431	0.795593	0.000610352	
6.73401	0.7901	0.000457764	
6.73065	0.786743	0.000457764	
6.72943	0.783386	0.000915527	
6.72943	0.780945	0.000457764	
6.72943	0.776367	0	
6.72943	0.77179	0.000305176	
6.72913	0.766602	0.000610352	
6.72943	0.762024	0.000457764	
6.72852	0.756531	-0.000152588	
6.72943	0.753784	0.00106812	
6.72943	0.751343	0.000915527	
6.72943	0.747681	0.000915527	
6.72943	0.741882	0.000457764	
6.72852	0.73761	0.000457764	
6.72882	0.732117	0.000610352	
6.72974	0.727844	0.000762939	
6.72913	0.722961	0.000457764	
6.72943	0.718994	0	
6.72943	0.716858	-0.000915527	
6.72943	0.712585	0.000305176	
6.72943	0.708008	0.000152588	
6.72913	0.703125	0	
6.72852	0.697632	0	
6.72638	0.692749	0.000457764	
6.72455	0.690002	0.000762939	
6.72394	0.687256	0.000762939	
6.72485	0.683289	0.000152588	
6.72455	0.678406	0	
6.72455	0.673218	0.000152588	
6.72455	0.667725	0	
6.72516	0.663452	-0.000152588	
6.72455	0.65918	0	
6.72424	0.655518	0.000305176	
6.72394	0.653381	0.000305176	
6.72455	0.648499	0.000305176	
6.72424	0.644226	0	
6.72424	0.638123	0.000152588	
6.72394	0.634155	0.0012207	
6.72424	0.629272	0.000915527	
6.72455	0.624695	0.0012207	
6.72424	0.621948	0.000305176	
6.72455	0.619507	0.000305176	
6.72363	0.614014	0.000457764	
6.72089	0.609741	0.000305176	
6.71997	0.603943	0.000152588	
6.71967	0.599976	0.000152588	
6.71936	0.594788	0.000610352	
6.71906	0.592346	0.000610352	
6.71936	0.589294	-0.000152588	
6.71875	0.585327	0.0012207	
6.71875	0.580444	0.000915527	
6.71906	0.574646	0.000610352	
6.71967	0.570374	0.000305176	
6.71906	0.565491	0.000610352	
6.71936	0.560608	0.000457764	
6.71936	0.558167	0.000915527	
6.71997	0.555115	0.000457764	
6.71844	0.550842	-0.000457764	
6.71936	0.545959	-0.000762939	
6.71936	0.540771	0.000610352	
6.72028	0.535889	0.000152588	
6.71906	0.532837	0.000152588	
6.71997	0.53009	0	
6.71906	0.525818	0	
6.71539	0.52063	0.000610352	
6.71539	0.516357	0.000610352	
6.71448	0.511169	-0.000152588	
6.71478	0.506287	0.000152588	
6.71448	0.50354	0.000457764	
6.71448	0.501099	0.000457764	
6.71478	0.496826	-0.000305176	
6.71478	0.491943	0.000305176	
6.71448	0.486755	0.000152588	
6.71448	0.481873	0	
6.71448	0.479126	0.000152588	
6.71417	0.476379	0	
6.71417	0.471802	0	
6.71478	0.467224	0.0012207	
6.71448	0.463257	0.000915527	
6.71478	0.460205	0.000610352	
6.71448	0.456543	0.000610352	
6.71448	0.453186	0.000305176	
6.71417	0.447998	0.000762939	
6.71143	0.443726	0.000305176	
6.71051	0.438538	0.000152588	
6.70929	0.435486	0.000305176	
6.70959	0.432129	0.000305176	
6.7099	0.428162	0.000152588	
6.7099	0.422668	-0.000152588	
6.7099	0.418396	0.00106812	
6.70959	0.41626	0.00106812	
6.71021	0.413208	0.000915527	
6.7099	0.40802	0.000457764	
6.71021	0.404053	0.000457764	
6.70929	0.398865	0.000610352	
6.7099	0.396729	0.000610352	
6.7099	0.393372	0.000457764	
6.70929	0.389099	-0.000457764	
6.71021	0.383911	-0.00106812	
6.70959	0.38147	0.000915527	
6.70959	0.378723	0.000305176	
6.70898	0.37384	0.000152588	
6.70654	0.369263	-0.000152588	
6.70532	0.366211	0	
6.70502	0.364075	0.000762939	
6.70471	0.359192	0.000305176	
6.70441	0.354309	0.000152588	
6.7041	0.350037	0.000457764	
6.70502	0.346985	0.000457764	
6.70441	0.343628	0.000457764	
6.70532	0.339661	-0.000152588	
6.70502	0.336914	-0.000305176	
6.70532	0.334473	0	
6.70532	0.32959	0	
6.70471	0.324707	-0.000152588	
6.70441	0.32196	0	
6.70471	0.319824	-0.000152588	
6.70349	0.315247	0.00106812	
6.70471	0.310669	0.00106812	
6.7041	0.307922	0.00106812	
6.70197	0.305786	0.000610352	
6.69983	0.300598	0.000762939	
6.70013	0.296021	0.000762939	
6.69983	0.293274	0.000610352	
6.70013	0.290222	0.000152588	
6.70013	0.285339	0	
6.70013	0.283813	0.000457764	
6.70044	0.281372	0.000305176	
6.69922	0.276489	0	
6.69983	0.273438	0.000762939	
6.69922	0.270691	0.000762939	
6.69983	0.265808	0.000610352	
6.69983	0.26123	0.000610352	
6.69983	0.258789	0.000762939	
6.70013	0.256042	0.000762939	
6.70013	0.25177	0.000915527	
6.70074	0.249329	0.000457764	
6.69891	0.246582	-0.000305176	
6.69678	0.241394	-0.000915527	
6.69525	0.238953	0.000457764	
6.69495	0.236206	-0.000152588	
6.69525	0.231934	0.000457764	
6.69403	0.229492	0	
6.69464	0.22644	0.000457764	
6.69495	0.223083	0.000762939	
6.69525	0.219727	0.000915527	
6.69464	0.21637	0	
6.69495	0.215149	0.000457764	
6.69495	0.211487	0	
6.69403	0.207214	0.000305176	
6.69464	0.204468	0	
6.69495	0.202026	0	
6.69525	0.197449	0	
6.69464	0.195007	0.000305176	
6.69403	0.192566	0.000152588	
6.69067	0.187683	0	
6.68976	0.184631	0	
6.68976	0.182495	0.00106812	
6.69006	0.179749	0.000915527	
6.68976	0.177307	0.000762939	
6.68976	0.172729	0.000305176	
6.68976	0.169678	0.000762939	
6.69067	0.167236	0.000610352	
6.69006	0.165405	0.000610352	
6.69006	0.163269	-0.000305176	
6.69006	0.158691	0	
6.69037	0.155945	0.000610352	
6.69006	0.153198	0	
6.68976	0.151367	0	
6.68976	0.148315	0.000915527	
6.69006	0.143738	0.000915527	
6.68976	0.140991	0.000762939	
6.6864	0.138855	0.000305176	
6.68549	0.135803	0.000915527	
6.68518	0.133667	0.000762939	
6.68427	0.129089	0.000610352	
6.68518	0.127258	0.000457764	
6.68488	0.123596	-0.000152588	
6.68488	0.12146	-0.000762939	
6.68457	0.118713	0.000152588	
6.68518	0.116272	0.000305176	
6.68427	0.113525	0	
6.68488	0.111694	0.000305176	
6.68549	0.109253	0.000305176	
6.68518	0.104675	0.000610352	
6.68488	0.101318	0.000457764	
6.68457	0.0985718	0.000152588	
6.68518	0.0964355	0.000457764	
6.68518	0.0949097	0.000152588	
6.68182	0.0918579	0.000457764	
6.67908	0.0891113	0.000152588	
6.67969	0.0872803	-0.000305176	
6.67969	0.0842285	0	
6.6803	0.0820923	0.000152588	
6.67969	0.0808716	0.000152588	
6.67969	0.078125	0.000152588	
6.67999	0.0759888	-0.000152588	
6.6806	0.0732422	0.00106812	
6.6803	0.0708008	0.000915527	
6.6803	0.0683594	0.00106812	
6.67938	0.0656128	0.000457764	
6.67999	0.0616455	0.00106812	
6.6803	0.0585938	0.000305176	
6.67999	0.0558472	0.000305176	
6.67969	0.0537109	0	
6.67603	0.0506592	0	
6.67511	0.0488281	0.000762939	
6.67572	0.0454712	0.000305176	
6.67389	0.0436401	0.000152588	
6.6748	0.0402832	0.000610352	
6.6745	0.0384521	0.000762939	
6.67419	0.038147	0.000457764	
6.6748	0.0357056	0.000457764	
6.67511	0.0335693	0.000915527	
6.6748	0.0308228	0.000762939	
6.67511	0.0292969	0.000457764	
6.67542	0.0259399	0.000457764	
6.67511	0.0234985	-0.000152588	
6.6748	0.0216675	-0.000762939	
6.6748	0.0195313	0.000305176	
6.67114	0.0161743	0.000305176	
6.67053	0.0140381	0.000305176	
6.67023	0.0112915	0.000305176	
6.66931	0.0088501	0.000152588	
6.67023	0.00671387	0.000762939	
6.66992	0.00457764	0.000610352	
6.66992	0.00396729	0.000457764	
6.67023	0.000915527	0.000610352	
6.66992	0	-0.000152588	
6.66992	-0.00335693	0.000305176	
6.67023	-0.00518799	-0.000305176	
6.66992	-0.00793457	0.000152588	
6.66992	-0.00976563	-0.000152588	
6.67023	-0.0131226	0.000610352	
6.67053	-0.0152588	-0.000152588	
6.66962	-0.0161743	0.000152588	
6.66656	-0.0177002	0.000305176	
6.66504	-0.0204468	0.0012207	
6.66504	-0.022583	0.00106812	
6.66504	-0.0250244	0.0012207	
6.66504	-0.027771	0.000305176	
6.66565	-0.0305176	0.000915527	
6.66504	-0.0308228	0.000457764	
6.66504	-0.0323486	0.000305176	
6.66473	-0.0341797	0.000305176	
6.66534	-0.0375366	0.000152588	
6.66504	-0.0390625	0.000762939	
6.66534	-0.0424194	0	
6.66412	-0.0442505	-0.000152588	
6.66626	-0.0454712	0.000610352	
6.66504	-0.0473022	0.00106812	
6.66138	-0.0500488	0.000762939	
6.66046	-0.0518799	0.000762939	
6.66046	-0.0549316	0.000762939	
6.65985	-0.0549316	0.000610352	
6.66016	-0.0567627	0.0012207	
6.66046	-0.0595093	0.000762939	
6.65955	-0.0622559	-0.000457764	
6.65985	-0.0640869	-0.000762939	
6.66016	-0.0653076	0.000610352	
6.65985	-0.0668335	0.000457764	
6.65955	-0.0692749	-0.000152588	
6.66016	-0.0714111	0	
6.66016	-0.0738525	0	
6.66046	-0.0750732	0.000457764	
6.66077	-0.0765991	0.000457764	
6.65955	-0.0790405	0	
6.65741	-0.0790405	0.000457764	
6.65558	-0.0820923	0.000305176	
6.65558	-0.0836182	0.000610352	
6.65466	-0.0866699	-0.000457764	
6.65466	-0.0888062	0	
6.65466	-0.0900269	0	
6.65497	-0.0912476	0.000305176	
6.65466	-0.093689	0	
6.65588	-0.0946045	0	
6.65497	-0.0961304	0.000457764	
6.65527	-0.0976563	0.00106812	
6.65497	-0.101318	0.000915527	
6.65497	-0.102844	0.000762939	
6.65588	-0.104065	0.000457764	
6.65436	-0.106201	0.000915527	
6.65222	-0.108032	0.000610352	
6.64978	-0.108948	0.000610352	
6.65009	-0.110474	0.000152588	
6.6507	-0.113525	0.000152588	
6.64978	-0.11322	0.000762939	
6.64917	-0.116272	0.000152588	
6.65039	-0.118103	0.000152588	
6.65039	-0.119019	0.000762939	
6.6507	-0.12146	0.000915527	
6.6507	-0.122986	0.00106812	
6.64948	-0.123596	0.000305176	
6.6507	-0.126038	0.000762939	
6.65009	-0.128174	0.000610352	
6.65009	-0.130615	0.000457764	
6.64948	-0.133972	0.000762939	
6.64673	-0.133667	-0.000152588	
6.64581	-0.135803	-0.000457764	
6.64459	-0.137024	0.000305176	
6.6449	-0.138245	-0.000152588	
6.6452	-0.140686	-0.000152588	
6.6449	-0.143738	0.000305176	
6.64551	-0.143738	0.000305176	
6.6452	-0.145569	0.000610352	
6.6449	-0.14801	0.000762939	
6.6452	-0.148621	0.000457764	
6.64581	-0.149536	0.000305176	
6.6452	-0.152893	0.000457764	
6.6452	-0.152893	0.000457764	
6.64581	-0.155334	0	
6.64459	-0.157471	0	
6.64185	-0.158081	0	
6.64093	-0.160217	0.000152588	
6.64063	-0.162354	-0.000152588	
6.64032	-0.162354	0.000152588	
6.64063	-0.162659	0.000305176	
6.64063	-0.16449	0.0012207	
6.64063	-0.166626	0.00106812	
6.64124	-0.167542	0.00152588	
6.64032	-0.169678	0.000305176	
6.64063	-0.172424	0.000610352	
6.64032	-0.172119	0.000610352	
6.64093	-0.174561	0.000610352	
6.64063	-0.177307	0	
6.6391	-0.177612	0.000152588	
6.63696	-0.179138	0.000915527	
6.63605	-0.18219	0.000305176	
6.63513	-0.18219	-0.000152588	
6.63513	-0.184631	0.000610352	
6.63574	-0.186768	0.000762939	
6.63574	-0.187378	0.000915527	
6.63544	-0.187683	0	
6.63605	-0.189209	0.000762939	
6.63574	-0.19043	0.000610352	
6.63574	-0.191345	0.000762939	
6.63483	-0.194702	0.000610352	
6.63574	-0.196838	-0.000152588	
6.63544	-0.197144	-0.000762939	
6.63483	-0.198975	0.000305176	
6.63513	-0.202026	0.000152588	
6.63239	-0.202026	0	
6.63086	-0.204468	-0.000152588	
6.63116	-0.206604	0	
6.63116	-0.206909	0.000457764	
6.63055	-0.206299	0.000610352	
6.63055	-0.209045	0.000305176	
6.62994	-0.211792	0.000610352	
6.63025	-0.211487	0.000152588	
6.63025	-0.214233	0.000610352	
6.63086	-0.21637	0.000152588	
6.63116	-0.21637	-0.000152588	
6.63055	-0.216675	0	
6.63025	-0.218811	-0.000152588	
6.62994	-0.221252	-0.000152588	
6.63025	-0.221252	0.000305176	
6.6275	-0.223694	0.000152588	
6.62537	-0.22583	0.00106812	
6.62598	-0.22644	0.00106812	
6.62567	-0.227966	0.000762939	
6.62598	-0.231018	0.000762939	
6.62537	-0.231018	0.00106812	
6.62567	-0.231628	0.000457764	
6.62537	-0.233154	0.000457764	
6.62628	-0.234985	0	
6.62598	-0.236511	-0.000152588	
6.62567	-0.238037	0.000610352	
6.62628	-0.240479	0.000305176	
6.62476	-0.240784	-0.000152588	
6.62628	-0.240784	0.000762939	
6.62231	-0.24292	0.000762939	
6.6214	-0.245361	0.000762939	
6.62048	-0.245972	0.000610352	
6.62018	-0.247803	0.000457764	
6.62048	-0.250244	0.00106812	
6.62048	-0.250854	0.000762939	
6.62048	-0.250854	0.000457764	
6.62018	-0.252686	0	
6.62048	-0.255737	-0.000915527	
6.62048	-0.255737	0.000305176	
6.62048	-0.258179	0	
6.62109	-0.26001	-0.000305176	
6.62048	-0.26062	0	
6.62048	-0.260925	0	
6.62109	-0.263062	0.000305176	
6.61774	-0.264587	0.000762939	
6.6156	-0.265808	0.000152588	
6.61591	-0.265503	0.000305176	
6.6153	-0.267944	0.000610352	
6.61621	-0.270386	0.000305176	
6.61499	-0.270081	0.000305176	
6.6156	-0.272217	-0.000152588	
6.61621	-0.274963	0	
6.61591	-0.275269	0	
6.6156	-0.275574	0.000152588	
6.61621	-0.277405	0.000305176	
6.6153	-0.280151	0.000305176	
6.6153	-0.280457	0.000457764	
6.61469	-0.282288	0.00106812	
6.61224	-0.285339	0.000915527	
6.61102	-0.285034	0.000762939	
6.61102	-0.28595	0.000915527	
6.61072	-0.287781	0.000610352	
6.61072	-0.289917	0.000762939	
6.61102	-0.289917	0.000305176	
6.61041	-0.289917	-0.000152588	
6.61041	-0.292358	0.000610352	
6.61041	-0.2948	0.000152588	
6.61102	-0.294189	-0.000305176	
6.61072	-0.296631	0.000915527	
6.61041	-0.299377	0.000610352	
6.61072	-0.299377	0.000762939	
6.61072	-0.299683	0.000610352	
6.61041	-0.302429	0.000457764	
6.60767	-0.304565	0.000915527	
6.60675	-0.304871	0.000762939	
6.60583	-0.305176	0.000457764	
6.60522	-0.307007	-0.000152588	
6.60583	-0.309753	-0.000762939	
6.60645	-0.310059	0.000610352	
6.60553	-0.311584	0.000457764	
6.60583	-0.314331	0.000152588	
6.60614	-0.314941	0	
6.60522	-0.314941	0	
6.60583	-0.316772	0.000610352	
6.60583	-0.319214	0.000457764	
6.60706	-0.319519	0.000152588	
6.60553	-0.319824	0.000610352	
6.60278	-0.321045	0.000457764	
6.60156	-0.323486	0.000610352	
6.60095	-0.324707	0	
6.60126	-0.324402	-0.000152588	
6.60095	-0.326538	0	
6.60065	-0.329285	0.000305176	
6.60065	-0.328674	-0.000152588	
6.60065	-0.331726	0.000305176	
6.60095	-0.333862	0	
6.60187	-0.334473	0.000915527	
6.60187	-0.334167	0.00106812	
6.60126	-0.336304	0.00137329	
6.60156	-0.33844	0.000457764	
6.60065	-0.339355	0.000762939	
6.60065	-0.339355	0.000610352	
6.5979	-0.341187	0.000457764	
6.59668	-0.343933	0	
6.59637	-0.344238	0	
6.59668	-0.343323	0.000305176	
6.59607	-0.346069	0.000610352	
6.59576	-0.348816	0.000305176	
6.59607	-0.349121	0.00106812	
6.59576	-0.350647	0.000762939	
6.59668	-0.353088	0.00106812	
6.59607	-0.353699	0.000152588	
6.59668	-0.353394	0.000762939	
6.59546	-0.356445	0.000915527	
6.59515	-0.358582	0.000762939	
6.59637	-0.358887	0.000457764	
6.59546	-0.358582	-0.000457764	
6.5921	-0.360718	-0.000610352	
6.5918	-0.363159	0.000457764	
6.5918	-0.36438	0.000457764	
6.59088	-0.364685	0.000305176	
6.59119	-0.365906	0.000152588	
6.59088	-0.368347	0.000152588	
6.59088	-0.367737	0.000457764	
6.59149	-0.370483	0.000762939	
6.59149	-0.372925	0.000457764	
6.59088	-0.37384	0.000457764	
6.59088	-0.373535	0	
6.59119	-0.375977	0.000457764	
6.5918	-0.377808	-0.000305176	
6.59088	-0.378723	0.000305176	
6.59119	-0.378723	-0.000152588	
6.58813	-0.380554	-0.000152588	
6.586	-0.382996	0.000305176	
6.58661	-0.383606	0	
6.58569	-0.383301	0	
6.58661	-0.385132	0.00106812	
6.5863	-0.387573	0.0012207	
6.586	-0.387878	0.000915527	
6.58661	-0.387573	0.000457764	
6.586	-0.39032	0.000152588	
6.5863	-0.392761	0.000762939	
6.58569	-0.393066	0.000915527	
6.5863	-0.395508	-0.000152588	
6.58569	-0.397644	0	
6.586	-0.397644	0.000610352	
6.58569	-0.39856	0.000457764	
6.58295	-0.400391	-0.000152588	
6.58142	-0.402527	0.000915527	
6.58112	-0.403137	0.000610352	
6.58112	-0.402832	0.000915527	
6.58112	-0.404358	0.000305176	
6.58112	-0.406799	0.000762939	
6.58203	-0.40802	0.000915527	
6.58142	-0.407715	0.000610352	
6.58112	-0.410767	0.000762939	
6.58081	-0.412292	-0.000152588	
6.58112	-0.413208	-0.000762939	
6.58081	-0.413208	0.000152588	
6.58081	-0.414734	0.000457764	
6.58142	-0.41748	0	
6.58051	-0.41748	-0.000152588	
6.57776	-0.417786	-0.000152588	
6.57623	-0.419922	0.000457764	
6.57593	-0.422058	0.000610352	
6.57623	-0.422363	0.000152588	
6.57562	-0.422974	0.000305176	
6.57562	-0.424805	0.000305176	
6.57623	-0.427246	0.000305176	
6.57593	-0.427856	-0.000152588	
6.57593	-0.429688	-0.000152588	
6.57654	-0.432129	0.000305176	
6.57654	-0.432739	0.000305176	
6.57623	-0.432434	-0.000152588	
6.57593	-0.43457	0.000305176	
6.57623	-0.437622	0	
6.57532	-0.437012	0.00106812	
6.57318	-0.437012	0.00106812	
6.57196	-0.440063	0.00106812	
6.57135	-0.441895	0.000915527	
6.57135	-0.4422	0.000915527	
6.57104	-0.442505	0.000762939	
6.57135	-0.443726	0.000762939	
6.57104	-0.446777	0	
6.57166	-0.447083	0.000152588	
6.57104	-0.446777	0.000305176	
6.57135	-0.449524	0.000152588	
6.57074	-0.451355	0.000152588	
6.57196	-0.451965	0.000762939	
6.57104	-0.45105	0.000610352	
6.57166	-0.453491	0.00106812	
6.57074	-0.455627	0.000457764	
6.5683	-0.456238	0.000457764	
6.56647	-0.456543	0.000915527	
6.56616	-0.459595	0.000457764	
6.56616	-0.460815	0.000915527	
6.56586	-0.462036	-0.000305176	
6.56677	-0.462036	-0.000762939	
6.56616	-0.464172	0.000152588	
6.56586	-0.466919	0.000457764	
6.56616	-0.466919	-0.000152588	
6.56525	-0.467224	0	
6.56647	-0.468445	0.000152588	
6.56616	-0.470886	0.000457764	
6.56616	-0.471191	0.000457764	
6.56616	-0.471802	0.000152588	
6.56586	-0.473328	0.000152588	
6.56281	-0.475464	0	
6.56158	-0.476379	0.000762939	
6.56128	-0.47699	-0.000152588	
6.56158	-0.478821	-0.000152588	
6.56158	-0.481262	0.000152588	
6.56128	-0.481262	0	
6.56128	-0.481873	-0.000152588	
6.56128	-0.484009	0.000457764	
6.56128	-0.485229	0.000152588	
6.56158	-0.485535	0.000610352	
6.56128	-0.48584	0.0012207	
6.56128	-0.487671	0.00106812	
6.56158	-0.490417	0.000305176	
6.56158	-0.491333	0.000762939	
6.56189	-0.491028	0.000457764	
6.56128	-0.492859	0.000762939	
6.55792	-0.495911	0	
6.5567	-0.496521	-0.000152588	
6.5567	-0.4953	0.000762939	
6.55731	-0.496826	0.000305176	
6.55701	-0.498657	-0.000152588	
6.55731	-0.499878	0.00106812	
6.5564	-0.500793	0.00106812	
6.55701	-0.500793	0.000915527	
6.55701	-0.503235	0.000457764	
6.5567	-0.505676	0.000610352	
6.55579	-0.506287	0.000762939	
6.5567	-0.505676	0.000762939	
6.5564	-0.508118	0.000610352	
6.55701	-0.509949	-0.000152588	
6.5567	-0.510864	-0.00106812	
6.5564	-0.510559	0.000305176	
6.55334	-0.513306	0.000305176	
6.55212	-0.514526	0	
6.55182	-0.516052	0.000152588	
6.55243	-0.515442	0	
6.55182	-0.518494	0.000915527	
6.55182	-0.519714	0.000610352	
6.55151	-0.52002	0.000305176	
6.55182	-0.520325	0.000152588	
6.55121	-0.52063	0.000152588	
6.55182	-0.523682	0.000610352	
6.55182	-0.525208	-0.000152588	
6.55151	-0.525208	0	
6.55151	-0.525513	-0.000152588	
6.55182	-0.528259	0.000305176	
6.5509	-0.53009	0	
6.54846	-0.53009	0.000457764	
6.54694	-0.530701	0.000305176	
6.54602	-0.532532	0.00106812	
6.54633	-0.534973	0.00106812	
6.54694	-0.535583	0.00106812	
6.54694	-0.534973	0.000305176	
6.54633	-0.53772	0.000610352	
6.54633	-0.539856	0	
6.54694	-0.540161	0.000457764	
6.54663	-0.540161	0	
6.54663	-0.539856	0.000152588	
6.54633	-0.541992	0.000457764	
6.54694	-0.544434	0.000305176	
6.54633	-0.545044	0.000152588	
6.54694	-0.544739	0.000610352	
6.54602	-0.54718	0.000457764	
6.54327	-0.549622	0.000762939	
6.54236	-0.549622	0.000610352	
6.54236	-0.549622	0.000610352	
6.54205	-0.550232	0.000915527	
6.54175	-0.551453	0.000152588	
6.54144	-0.553894	0.000915527	
6.54144	-0.55542	0.000152588	
6.54236	-0.555115	-0.000610352	
6.54236	-0.557251	0.000305176	
6.54236	-0.559082	0.000305176	
6.54144	-0.560303	0.000152588	
6.54175	-0.559998	0	
6.54144	-0.560303	0	
6.54205	-0.561829	0.000610352	
6.54236	-0.56488	0.000610352	
6.54114	-0.565186	0.000152588	
6.54175	-0.565186	0.000152588	
6.53839	-0.566711	0.000152588	
6.53687	-0.568848	0.000610352	
6.53687	-0.570068	-0.000152588	
6.53748	-0.570068	0	
6.53656	-0.569763	0.000152588	
6.53687	-0.571899	0.000152588	
6.53656	-0.574646	0.000305176	
6.53687	-0.574646	0.000305176	
6.53687	-0.574646	0.000610352	
6.53687	-0.576477	0.00106812	
6.53687	-0.579529	0.0012207	
6.53687	-0.579224	0.0012207	
6.53717	-0.579529	0.000152588	
6.53656	-0.579529	0.000915527	
6.53717	-0.58197	0.000457764	
6.53656	-0.583801	0.000762939	
6.53442	-0.584717	0.000152588	
6.53229	-0.584717	0	
6.53198	-0.584717	0.000610352	
6.53198	-0.586853	0.000457764	
6.53229	-0.589294	0	
6.53137	-0.5896	0.000762939	
6.53229	-0.588989	0.000915527	
6.53198	-0.592041	0.000762939	
6.53198	-0.593567	0.000152588	
6.53198	-0.594788	0.000457764	
6.53168	-0.594177	0.000610352	
6.53168	-0.594788	0.000305176	
6.53168	-0.596008	0.000457764	
6.53198	-0.59906	0.000152588	
6.53198	-0.599365	-0.000762939	
6.53107	-0.599365	0.000305176	
6.52832	-0.599365	0.000457764	
6.5274	-0.601196	0.000305176	
6.52679	-0.603638	0.000305176	
6.52618	-0.604248	0.000305176	
6.5271	-0.603943	0.000762939	
6.5274	-0.603943	0.00106812	
6.52679	-0.606079	0.000610352	
6.52832	-0.608521	0.000457764	
6.5271	-0.609131	0.000152588	
6.52649	-0.609131	0.000457764	
6.52771	-0.609436	0	
6.52679	-0.611267	0.000152588	
6.52771	-0.613708	-0.000152588	
6.52679	-0.613708	0.000305176	
6.52771	-0.614624	-0.000152588	
6.52649	-0.614014	0.000152588	
6.52313	-0.61615	0.000305176	
6.52161	-0.617676	0.000915527	
6.52161	-0.618591	0.00106812	
6.52222	-0.618286	0.0012207	
6.52191	-0.619812	0.000457764	
6.52161	-0.621338	0.000762939	
6.52191	-0.623169	0.000305176	
6.52283	-0.623779	0.000915527	
6.5213	-0.624084	0.000152588	
6.52191	-0.62439	0.000152588	
6.52191	-0.625916	0.000915527	
6.52161	-0.628052	0.000305176	
6.52191	-0.628052	-0.000152588	
6.52191	-0.628662	0.000915527	
6.52161	-0.628052	0.000762939	
6.52161	-0.629883	0.000762939	
6.51855	-0.632935	0.000762939	
6.51703	-0.63324	0.000610352	
6.51672	-0.63324	0.000610352	
6.51672	-0.633545	0.000305176	
6.51642	-0.63324	0.000457764	
6.51703	-0.635681	0	
6.51672	-0.636902	-0.000762939	
6.51733	-0.638123	0.000152588	
6.51703	-0.638428	0.000457764	
6.51764	-0.638733	0	
6.51703	-0.640259	0.000152588	
6.51703	-0.6427	0.000152588	
6.51733	-0.643005	0.000915527	
6.51672	-0.643616	0.000915527	
6.51672	-0.643005	0.000152588	
6.51703	-0.643616	0.000305176	
6.51367	-0.644531	0	
6.51215	-0.647583	0.000610352	
6.51154	-0.648193	-0.000152588	
6.51245	-0.648499	0	
6.51184	-0.647888	-0.000152588	
6.51215	-0.650635	0.000305176	
6.51123	-0.652771	-0.000457764	
6.51245	-0.653381	0.000305176	
6.51245	-0.652466	-0.000152588	
6.51184	-0.652771	0.000762939	
6.51215	-0.653687	0.0012207	
6.51154	-0.654907	0.000915527	
6.51215	-0.657043	0.000457764	
6.51184	-0.658264	0.000762939	
6.51184	-0.658264	0.000915527	
6.50879	-0.658264	0.000457764	
6.50818	-0.657959	0.000152588	
6.50696	-0.661011	-0.000152588	
6.50665	-0.661621	0.000610352	
6.50726	-0.663147	0.000457764	
6.50726	-0.662842	0.000152588	
6.50696	-0.662537	0.0012207	
6.50757	-0.663147	0.000762939	
6.50757	-0.664673	0.00137329	
6.50726	-0.667419	0.000610352	
6.50757	-0.667725	0.000457764	
6.50726	-0.667419	0.000915527	
6.50757	-0.667114	0.000457764	
6.50665	-0.667725	0.000610352	
6.50635	-0.669861	-0.000457764	
6.5036	-0.671997	-0.000762939	
6.50208	-0.672302	0	
6.50238	-0.672913	0.000457764	
6.50208	-0.672913	-0.000152588	
6.50208	-0.672607	0.000152588	
6.50208	-0.675049	0.000152588	
6.50269	-0.67688	0.000305176	
6.50177	-0.67749	0.000305176	
6.50269	-0.67749	0.000610352	
6.50238	-0.677185	0.000305176	
6.50177	-0.677795	0.000305176	
6.50177	-0.67749	0.000610352	
6.50208	-0.679626	0.000305176	
6.50208	-0.681763	-0.000305176	
6.50208	-0.682373	0	
6.49841	-0.682373	0.000305176	
6.4975	-0.682678	0	
6.49689	-0.682068	0.000457764	
6.49719	-0.682678	0.000152588	
6.49689	-0.68512	0.000915527	
6.49719	-0.686646	0.00106812	
6.4975	-0.687561	0.0012207	
6.49689	-0.687561	0.000762939	
6.49689	-0.687256	0.000305176	
6.49658	-0.687561	0.000610352	
6.4978	-0.687561	0.000610352	
6.49719	-0.689697	0.000610352	
6.49719	-0.691528	0.000152588	
6.49689	-0.692444	0	
6.49414	-0.692444	0.000610352	
6.49231	-0.692444	0	
6.49261	-0.691833	0.000762939	
6.49231	-0.692444	0.000457764	
6.49231	-0.692444	0.000762939	
6.492	-0.694885	0.000762939	
6.49231	-0.697021	0.000305176	
6.4917	-0.697327	0.000762939	
6.49261	-0.696716	0.000610352	
6.492	-0.697021	0.000762939	
6.49261	-0.697327	0.000152588	
6.49231	-0.697632	-0.000762939	
6.492	-0.697021	0.000152588	
6.492	-0.697021	0.000762939	
6.48865	-0.700378	0	
6.48804	-0.701294	-0.000152588	
6.48743	-0.701599	0	
6.48743	-0.702209	0.000610352	
6.48743	-0.701904	0.000762939	
6.48743	-0.701904	0.000152588	
6.48773	-0.701599	0.000305176	
6.48712	-0.701904	-0.000152588	
6.48743	-0.701599	0.000610352	
6.48743	-0.702515	0	
6.48743	-0.701904	-0.000305176	
6.48743	-0.704041	0	
6.48743	-0.706177	0.000152588	
6.48468	-0.706787	-0.000152588	
6.48315	-0.706787	0.000152588	
6.48254	-0.706482	0.000457764	
6.48224	-0.706177	0.000915527	
6.48254	-0.706787	0.00106812	
6.48254	-0.706787	0.000915527	
6.48285	-0.706482	0.000152588	
6.48254	-0.707092	0.000762939	
6.48285	-0.706787	0.000610352	
6.48224	-0.706787	0.000305176	
6.48224	-0.706787	0.000305176	
6.48254	-0.707092	0.000152588	
6.48254	-0.707092	0.000457764	
6.47949	-0.706787	0.000457764	
6.47736	-0.707397	0	
6.47766	-0.707092	0.000915527	
6.47797	-0.707397	0.000762939	
6.47766	-0.705872	0.0012207	
6.47827	-0.707092	0.000457764	
6.47858	-0.706482	0.000762939	
6.47797	-0.706787	0.000762939	
6.47736	-0.707092	0.000305176	
6.47736	-0.706177	0.000457764	
6.47766	-0.706482	-0.000152588	
6.47736	-0.706787	-0.000610352	
6.47705	-0.706787	0.000152588	
6.47461	-0.707092	0.000305176	
6.47308	-0.707703	0	
6.47278	-0.707092	0	
6.47278	-0.707092	0	
6.47308	-0.706787	0.000762939	
6.47217	-0.706787	0.000457764	
6.47247	-0.706787	0	
6.47217	-0.706482	0	
6.47308	-0.706482	0.000305176	
6.47247	-0.706482	0.000457764	
6.47186	-0.706482	0	
6.47217	-0.706482	-0.000457764	
6.47278	-0.707397	0.000152588	
6.46973	-0.704651	0.000152588	
6.46851	-0.702515	0	
6.46759	-0.701904	0.000152588	
6.46729	-0.702209	0.000610352	
6.4682	-0.701294	0.000915527	
6.4679	-0.701904	0.00106812	
6.4682	-0.70282	0.000610352	
6.46851	-0.702209	0.000152588	
6.46759	-0.699463	0.000457764	
6.4679	-0.697937	0.000457764	
6.4679	-0.697327	0.000610352	
6.4679	-0.696411	0	
6.46454	-0.697327	0.000152588	
6.46301	-0.697021	0.000457764	
6.4624	-0.694885	0.000305176	
6.46301	-0.693359	-0.000152588	
6.46301	-0.692444	0.000610352	
6.46301	-0.691528	0.000915527	
6.4624	-0.692139	0.0012207	
6.46332	-0.690002	0.000457764	
6.46271	-0.687866	0.000762939	
6.46301	-0.687256	0.000762939	
6.46301	-0.687256	0.000305176	
6.4624	-0.685425	0.000457764	
6.45966	-0.682373	0	
6.45813	-0.682983	-0.000762939	
6.45782	-0.679932	0.000152588	
6.45813	-0.678406	0.000152588	
6.45752	-0.67749	0.000152588	
6.45813	-0.678406	0.000305176	
6.45721	-0.675354	0	
6.45721	-0.673523	0.000762939	
6.45782	-0.672302	0.000762939	
6.45813	-0.670776	0.000610352	
6.45752	-0.668945	0.000457764	
6.45477	-0.664978	0	
6.45294	-0.663452	0.000610352	
6.45325	-0.662842	0	
6.45294	-0.660706	-0.000152588	
6.45264	-0.658264	0.000457764	
6.45294	-0.656128	0.000305176	
6.45264	-0.653381	-0.000152588	
6.45355	-0.653381	0.000305176	
6.45325	-0.65094	0.000305176	
6.45325	-0.648499	0.000762939	
6.45294	-0.645752	0.00137329	
6.45264	-0.6427	0.00106812	
6.44989	-0.641174	0.000457764	
6.44897	-0.638733	0.000457764	
6.44836	-0.636597	0.000610352	
6.44836	-0.63446	0.000457764	
6.44836	-0.631409	0.000152588	
6.44806	-0.629272	0.000152588	
6.44775	-0.626221	0.000610352	
6.44867	-0.621948	0.000457764	
6.44806	-0.618896	0.000152588	
6.44897	-0.617065	0.000915527	
6.44806	-0.614319	0.000762939	
6.4447	-0.611877	0.0012207	
6.44379	-0.607605	0.000152588	
6.44257	-0.604858	0.000152588	
6.44348	-0.602112	0.000915527	
6.44318	-0.599365	0.000610352	
6.44287	-0.596924	0.000457764	
6.44348	-0.592041	-0.000457764	
6.44318	-0.587158	-0.000457764	
6.44318	-0.585022	0.000305176	
6.44348	-0.582581	0.000305176	
6.44318	-0.578003	0.000152588	
6.44287	-0.574646	0.000152588	
6.43951	-0.572815	0.000152588	
6.43829	-0.568237	0.000762939	
6.4386	-0.563354	0.000915527	
6.43799	-0.560608	0.000305176	
6.43799	-0.557861	0.000305176	
6.43829	-0.553589	0.000152588	
6.43768	-0.548096	0.0012207	
6.43799	-0.543518	0	
6.43829	-0.540771	-0.000457764	
6.43768	-0.538025	0.000152588	
6.43799	-0.533447	0.000457764	
6.43433	-0.529175	0.000152588	
6.43433	-0.523987	0.000305176	
6.43311	-0.518799	0.000610352	
6.43372	-0.513611	0.000762939	
6.43311	-0.509033	0.000915527	
6.43372	-0.504456	0.00106812	
6.43372	-0.501709	0.000305176	
6.43341	-0.498962	0.000762939	
6.43341	-0.49408	0.000305176	
6.43311	-0.489502	0.000915527	
6.43005	-0.484619	-0.000152588	
6.42822	-0.479736	0.000152588	
6.42853	-0.474854	0.000610352	
6.42792	-0.469971	0.000305176	
6.42853	-0.465088	0	
6.42822	-0.460205	0.000915527	
6.42883	-0.453186	0.000762939	
6.42883	-0.445557	0.00106812	
6.42853	-0.440674	0.000457764	
6.42883	-0.435486	0.000457764	
6.42731	-0.430603	0.000610352	
6.42578	-0.426025	0.000610352	
6.42334	-0.421143	0.000610352	
6.42334	-0.416565	0	
6.42365	-0.411377	-0.000762939	
6.42334	-0.406189	0.000152588	
6.42365	-0.399475	0.000457764	
6.42365	-0.392456	-0.000152588	
6.42303	-0.387268	0.000457764	
6.42395	-0.381775	0	
6.42365	-0.376282	0.000610352	
6.42273	-0.369873	0.000610352	
6.41998	-0.36377	0.000305176	
6.41876	-0.357666	0.000610352	
6.41876	-0.352783	0	
6.41846	-0.345459	0.000610352	
6.41876	-0.338135	0	
6.41846	-0.332642	-0.000305176	
6.41815	-0.328064	0	
6.41876	-0.320435	0	
6.41846	-0.313416	0	
6.41846	-0.308838	0.000457764	
6.41571	-0.301514	0.000457764	
6.41327	-0.294189	0.000762939	
6.41388	-0.288696	0.00106812	
6.41327	-0.281677	0.00137329	
6.41327	-0.274658	0.000152588	
6.41357	-0.269165	0.000915527	
6.41357	-0.262146	0.000152588	
6.41327	-0.254517	0.000915527	
6.41357	-0.246887	0.000152588	
6.41327	-0.240173	0.000305176	
6.41357	-0.23407	0.000762939	
6.41022	-0.227966	0.000152588	
6.409	-0.220947	-0.000152588	
6.40839	-0.213013	0.000915527	
6.40808	-0.205383	0.000762939	
6.40778	-0.200806	0.000915527	
6.40869	-0.193176	0.000610352	
6.40869	-0.186157	0.000915527	
6.4093	-0.177917	0.000915527	
6.40869	-0.171204	0.000152588	
6.409	-0.163269	0.000610352	
6.40594	-0.156555	-0.000152588	
6.40381	-0.149231	-0.000610352	
6.4032	-0.141602	0	
6.40411	-0.134277	0.000305176	
6.4035	-0.127563	0	
6.4032	-0.119934	0.000152588	
6.40381	-0.113525	0.000152588	
6.40381	-0.10498	0.000457764	
6.40411	-0.0976563	0.000915527	
6.4035	-0.0909424	0.000152588	
6.40076	-0.0808716	0.000305176	
6.39923	-0.0738525	0.000152588	
6.39923	-0.0653076	0.000610352	
6.39832	-0.0592041	-0.000152588	
6.39923	-0.0512695	-0.000457764	
6.39923	-0.0442505	0.000457764	
6.39832	-0.0366211	0	
6.39832	-0.0271606	0.000152588	
6.39893	-0.0195313	0.000152588	
6.39923	-0.0119019	0.000305176	
6.39801	-0.00427246	0.000915527	
6.39496	0.00274658	0.00106812	
6.39374	0.0119019	0.0012207	
6.39313	0.0195313	0.000152588	
6.39465	0.0274658	0.000762939	
6.39404	0.0341797	0.000305176	
6.39435	0.0418091	0.000762939	
6.39343	0.0509644	0	
6.39404	0.0592041	0.000152588	
6.39374	0.0668335	0.000610352	
6.39374	0.0732422	0.000305176	
6.39008	0.0808716	0.000152588	
6.38885	0.0894165	0.000610352	
6.38885	0.0976563	0.000457764	
6.38824	0.10498	0.00106812	
6.38855	0.114441	0.000457764	
6.38855	0.12207	0.000610352	
6.38947	0.1297	0.000915527	
6.38885	0.13916	0.000305176	
6.38824	0.146179	0.000457764	
6.38855	0.154724	-0.000152588	
6.3855	0.161438	-0.000457764	
6.38458	0.169067	0	
6.38367	0.177917	0.000457764	
6.38397	0.185242	-0.000152588	
6.38397	0.193176	0.000305176	
6.38428	0.202332	0	
6.38397	0.210571	0.000762939	
6.38367	0.218201	0.000762939	
6.38397	0.227661	0.000305176	
6.38367	0.23468	0.000305176	
6.38092	0.242615	0	
6.3797	0.25177	0.000762939	
6.37878	0.258789	0	
6.37817	0.266418	-0.000457764	
6.37878	0.273743	0.000305176	
6.3797	0.281372	0.000305176	
6.37848	0.290833	0	
6.37939	0.298767	0.000305176	
6.37878	0.306091	0.000305176	
6.37878	0.314941	0.00106812	
6.37512	0.322876	0.000915527	
6.37482	0.330505	0.0012207	
6.37451	0.338135	0.000305176	
6.37451	0.345459	0.000610352	
6.3736	0.354614	0.000762939	
6.37421	0.361938	0.000762939	
6.37421	0.369873	0.000152588	
6.3739	0.379333	0.000305176	
6.3739	0.387268	0.000305176	
6.37421	0.394287	0.000457764	
6.37085	0.401001	0.000152588	
6.36963	0.40863	0.000915527	
6.36932	0.418396	0.000915527	
6.36871	0.426025	0.00106812	
6.36902	0.43335	0.000305176	
6.36963	0.440979	0.000762939	
6.36902	0.447998	0.000610352	
6.36932	0.455017	0.000305176	
6.36871	0.463562	0.000610352	
6.36597	0.472107	0	
6.36505	0.479431	-0.000915527	
6.36383	0.487671	0.000152588	
6.36383	0.494385	0.000305176	
6.36383	0.502014	0.000457764	
6.36444	0.508728	0.000152588	
6.36414	0.516968	0.000610352	
6.36414	0.523987	0.000457764	
6.36444	0.531616	0.000762939	
6.36414	0.538635	0.000305176	
6.36108	0.54657	0	
6.35956	0.553894	0.000305176	
6.35956	0.561523	0.000457764	
6.35895	0.568542	0.000152588	
6.35925	0.575562	-0.000457764	
6.35895	0.583191	0	
6.35925	0.589905	0.000152588	
6.35986	0.597534	0	
6.35895	0.605774	0.000457764	
6.35864	0.612488	0.000152588	
6.3559	0.620422	0.000915527	
6.35468	0.626526	0.000915527	
6.35437	0.635376	0.0012207	
6.35437	0.641785	0.000610352	
6.35437	0.649414	0.000762939	
6.35376	0.656433	0.000152588	
6.35498	0.662231	0.000762939	
6.35437	0.66925	0	
6.35406	0.675964	0.000305176	
6.35376	0.683594	0.000457764	
6.35132	0.691223	0.000457764	
6.34918	0.69519	0	
6.34949	0.703125	0.00106812	
6.34949	0.710449	0.000915527	
6.34918	0.716248	0.00137329	
6.34918	0.723267	0.000457764	
6.34857	0.730286	0.000457764	
6.34949	0.735779	0.000915527	
6.34888	0.742798	0.000457764	
6.34552	0.749817	0.000457764	
6.34491	0.755615	0	
6.34491	0.762634	-0.000762939	
6.34369	0.769348	0.000305176	
6.34521	0.775146	0.000152588	
6.3443	0.78186	-0.000152588	
6.3443	0.788574	0.000457764	
6.3443	0.794373	-0.000152588	
6.3446	0.799255	0.000762939	
6.34399	0.806274	0.000457764	
6.34094	0.813293	0.000457764	
6.33972	0.819397	0.000152588	
6.33911	0.823669	0.000152588	
6.33942	0.828857	0.000305176	
6.33942	0.835876	0	
6.33942	0.84259	-0.000915527	
6.33972	0.848694	-0.000152588	
6.33911	0.853577	0	
6.33911	0.857849	-0.000152588	
6.33881	0.865173	0.000610352	
6.33606	0.871887	0.000305176	
6.33453	0.87738	0.000457764	
6.33453	0.882263	0.000610352	
6.33453	0.888062	0.00137329	
6.33514	0.892334	0.000610352	
6.33453	0.897217	0.000610352	
6.33423	0.9021	0.000762939	
6.33545	0.907593	0.000457764	
6.33484	0.911865	0.000305176	
6.33118	0.919189	0	
6.32965	0.926208	0.000305176	
6.32996	0.932312	0.000457764	
6.32996	0.936584	-0.000152588	
6.32965	0.941162	0.000762939	
6.33026	0.94635	0.000610352	
6.32965	0.951233	0.0012207	
6.32935	0.956116	0.000305176	
6.32935	0.961914	0.000610352	
6.32935	0.965881	0.000457764	
6.32629	0.970459	0.000457764	
6.32507	0.975647	0.000610352	
6.32477	0.979004	-0.000305176	
6.32477	0.980835	-0.000457764	
6.32416	0.985107	0.000152588	
6.32446	0.990601	0.000305176	
6.32568	0.995178	0	
6.32477	1.00037	0.000152588	
6.32446	1.00525	0.000457764	
6.32172	1.00983	0.000457764	
6.3205	1.01471	0.000305176	
6.31989	1.01746	0.000305176	
6.31989	1.02051	0.000152588	
6.31989	1.02417	0	
6.31989	1.02905	0.000762939	
6.31989	1.03424	-0.000152588	
6.31927	1.03912	-0.000152588	
6.32019	1.04156	0.000457764	
6.31958	1.04431	0.000152588	
6.31653	1.04919	0	
6.31531	1.05408	0.000305176	
6.31439	1.05652	0.000152588	
6.31439	1.05988	0.000915527	
6.31531	1.06384	0.000762939	
6.315	1.06934	0.0012207	
6.3147	1.07208	0.000305176	
6.315	1.07452	0.000610352	
6.315	1.07819	0.000305176	
6.31195	1.08154	0.000457764	
6.31012	1.08429	0.000305176	
6.31012	1.08887	0.000152588	
6.31042	1.09192	0.000305176	
6.31042	1.09406	0.000457764	
6.31012	1.09772	0	
6.31042	1.10107	0.00106812	
6.31073	1.10321	0.000610352	
6.30981	1.10657	0.000762939	
6.30676	1.1087	0.000457764	
6.30524	1.11053	0.000457764	
6.30585	1.11328	0.000610352	
6.30554	1.11816	0.000457764	
6.30524	1.12061	0.000762939	
6.30554	1.12305	0	
6.30554	1.12518	-0.00106812	
6.30524	1.12793	0.000152588	
6.30524	1.13007	0.000305176	
6.30524	1.13281	0.000305176	
6.30249	1.13495	0.000305176	
6.30096	1.13586	0.000305176	
6.30066	1.1377	0.000610352	
6.30035	1.13983	0.000457764	
6.30005	1.14349	0.000305176	
6.30066	1.14563	0.000305176	
6.30035	1.14807	0	
6.30096	1.15021	0.000457764	
6.30035	1.15051	0.000305176	
6.29639	1.15265	0	
6.29639	1.15448	0.000305176	
6.29578	1.1557	0	
6.29578	1.15753	0	
6.29547	1.15936	0.000152588	
6.29517	1.16028	0	
6.29547	1.16241	0.000610352	
6.29456	1.16455	0.000915527	
6.29547	1.16516	0.00106812	
6.29181	1.1676	0.000610352	
6.29089	1.16913	0.000762939	
6.29089	1.17004	0.000305176	
6.29089	1.17065	0.000457764	
6.29059	1.17279	0.000305176	
6.29028	1.17432	0.000305176	
6.2912	1.17523	0.000610352	
6.29089	1.17523	0.000305176	
6.28998	1.17554	0	
6.28754	1.17737	0.000915527	
6.28632	1.1792	0.000915527	
6.2851	1.18042	0.00137329	
6.2854	1.17981	0.000152588	
6.2854	1.18011	0.000305176	
6.28571	1.18011	0.000762939	
6.28571	1.18042	0.000305176	
6.28571	1.18195	0.000305176	
6.2854	1.18408	-0.000152588	
6.28479	1.18439	-0.000610352	
6.28235	1.18439	0	
6.28082	1.18439	0.000305176	
6.28052	1.18378	0.000152588	
6.28082	1.18439	0.000305176	
6.28021	1.18408	0	
6.28082	1.18561	0.000152588	
6.28052	1.18469	0.000610352	
6.28021	1.18469	0.000152588	
6.27991	1.18439	0.000457764	
6.27747	1.18561	0	
6.27625	1.185	0.000305176	
6.27625	1.18408	0	
6.27563	1.185	-0.000152588	
6.27533	1.185	0.000152588	
6.27594	1.1853	0.000152588	
6.27533	1.18439	-0.000152588	
6.27563	1.18439	0	
6.27533	1.185	0.000305176	
6.27228	1.18469	0.000915527	
6.27045	1.18439	0.00106812	
6.26984	1.18347	0.0012207	
6.27075	1.18073	0.000305176	
6.27106	1.1795	0.000610352	
6.27045	1.17981	0.000305176	
6.27106	1.18073	0.000915527	
6.27106	1.18011	0	
6.27045	1.1795	0.000457764	
6.2674	1.17798	0.000152588	
6.26648	1.17554	0.000457764	
6.26587	1.17493	0.000152588	
6.26648	1.17493	0.000762939	
6.26587	1.17462	0.000457764	
6.26587	1.1731	0.0012207	
6.26587	1.17035	0.000457764	
6.26617	1.17096	0.000457764	
6.26495	1.17065	0.000610352	
6.26282	1.16821	0.000610352	
6.26099	1.16577	0.000457764	
6.26099	1.16486	0	
6.26068	1.16516	-0.000762939	
6.26038	1.16302	0.000152588	
6.26068	1.16089	0.000457764	
6.26038	1.16058	0.000152588	
6.26068	1.15845	0.000152588	
6.26099	1.15662	0	
6.25702	1.1554	0.000457764	
6.25641	1.15387	0.000305176	
6.2558	1.15082	0.000152588	
6.2558	1.15051	0.000305176	
6.25671	1.14899	0.000152588	
6.25549	1.14624	0.000762939	
6.2558	1.14532	0.000152588	
6.25549	1.1438	-0.000762939	
6.25519	1.14105	-0.000152588	
6.25244	1.14044	0.000152588	
6.25183	1.13861	0.000305176	
6.25122	1.13586	0.000457764	
6.25	1.13373	0.000305176	
6.25092	1.13098	0.000610352	
6.25061	1.12885	0.00106812	
6.25031	1.1261	0.00152588	
6.25061	1.12579	0.000762939	
6.24756	1.12427	0.000762939	
6.24634	1.12152	0.000610352	
6.24573	1.11938	0.000762939	
6.24634	1.11664	-0.000152588	
6.24603	1.11389	0.000305176	
6.24634	1.11237	0.000152588	
6.24603	1.10901	0.000610352	
6.24573	1.10657	0	
6.24573	1.10474	0.000915527	
6.24268	1.10168	0.000305176	
6.24146	1.09955	0.00106812	
6.24115	1.09711	0.000915527	
6.24115	1.09436	0.000152588	
6.24146	1.09314	0.000610352	
6.24115	1.08978	0.000305176	
6.24115	1.08734	0.000762939	
6.24115	1.0849	0.000152588	
6.24054	1.08032	-0.000457764	
6.23871	1.07758	0.000152588	
6.23657	1.07483	0.000457764	
6.23627	1.07269	0.000152588	
6.23688	1.06995	0.000305176	
6.23596	1.06812	-0.000152588	
6.23688	1.06567	0.000457764	
6.23657	1.06079	0.000305176	
6.23627	1.05804	0.000152588	
6.23566	1.05499	0.000305176	
6.23291	1.05316	0.000305176	
6.23169	1.05011	0.000457764	
6.23138	1.04584	0.000152588	
6.23108	1.0434	-0.000305176	
6.23169	1.04126	0	
6.23077	1.03607	0	
6.23108	1.03333	0	
6.23108	1.03119	0.000457764	
6.23108	1.02692	0	
6.22864	1.02325	0.000610352	
6.2265	1.02081	0.00106812	
6.22589	1.01685	0.0012207	
6.2265	1.0144	0	
6.22681	1.01135	0.000610352	
6.2262	1.00677	0.000152588	
6.2262	1.00403	0.000762939	
6.2262	1.00098	0.000305176	
6.2262	0.997009	0.000305176	
6.22314	0.994873	0.000610352	
6.22101	0.991821	0.000457764	
6.22131	0.987549	0.000610352	
6.22101	0.982361	0.000610352	
6.22192	0.979309	0.000915527	
6.22162	0.977173	0.00137329	
6.22101	0.97229	0.000762939	
6.22101	0.970154	0.000610352	
6.2204	0.967407	0.000915527	
6.21826	0.962524	0.000457764	
6.21674	0.957642	0.00106812	
6.21643	0.954895	0.000305176	
6.21582	0.952759	-0.000762939	
6.21613	0.947266	0	
6.21643	0.942993	-0.000152588	
6.21674	0.939331	0	
6.21643	0.93811	0.000457764	
6.21613	0.933228	0	
6.21368	0.928955	0.000915527	
6.21185	0.924377	0.000457764	
6.21124	0.920715	0.000457764	
6.21094	0.918274	0.000305176	
6.21155	0.913391	0.000152588	
6.21155	0.908813	0.000915527	
6.21155	0.906372	-0.000152588	
6.21185	0.90332	-0.000610352	
6.21155	0.899353	0.000152588	
6.20819	0.89447	0	
6.20667	0.889282	0	
6.20636	0.886536	0.000305176	
6.20667	0.883484	-0.000152588	
6.20636	0.879211	0.000610352	
6.20605	0.874634	0.000915527	
6.20667	0.869446	0.00106812	
6.20605	0.867004	0.000457764	
6.20667	0.864258	0.000457764	
6.20605	0.85968	0.000305176	
6.20392	0.854797	0.000610352	
6.20178	0.850525	0.000152588	
6.20178	0.845032	0.000610352	
6.20148	0.84259	0	
6.20117	0.839844	0.000610352	
6.20117	0.834656	0.000152588	
6.20117	0.830688	0.000610352	
6.20209	0.8255	0.000762939	
6.20117	0.820313	0.0012207	
6.19904	0.817871	0.000915527	
6.1972	0.814514	0.000305176	
6.19659	0.811157	0.000915527	
6.19629	0.806274	0.000610352	
6.1969	0.800171	0.000610352	
6.19629	0.796204	-0.000152588	
6.1969	0.792542	-0.000762939	
6.19629	0.79071	0	
6.19629	0.786438	0.000457764	
6.19354	0.78125	-0.000152588	
6.19171	0.776672	0	
6.19202	0.771484	0.000305176	
6.19141	0.767517	0.000457764	
6.19141	0.763855	0.000305176	
6.19141	0.760803	0.000610352	
6.19171	0.756531	0.000457764	
6.19141	0.751953	0	
6.19141	0.74707	0.000457764	
6.18896	0.741882	-0.000457764	
6.18744	0.73761	-0.000610352	
6.18652	0.732117	0.000305176	
6.18652	0.727539	0.000305176	
6.18713	0.722351	0.000152588	
6.18652	0.717773	0.000305176	
6.18652	0.713501	0.000305176	
6.18652	0.708313	0.000762939	
6.18561	0.70343	0.00106812	
6.18317	0.700378	0.00106812	
6.18164	0.697021	0.000305176	
6.18164	0.693665	0.000610352	
6.18134	0.688782	0.000457764	
6.18195	0.683594	0.000457764	
6.18164	0.678101	0.000305176	
6.18195	0.672913	0	
6.18134	0.670776	0.000305176	
6.18134	0.668335	0.000610352	
6.17859	0.664063	0.000305176	
6.17706	0.658264	0.000762939	
6.17706	0.653381	0.000305176	
6.17706	0.648804	0.000915527	
6.17645	0.644531	0.000915527	
6.17737	0.638733	0.000610352	
6.17676	0.636597	0.000762939	
6.17737	0.633545	0.000305176	
6.17706	0.629578	0.000457764	
6.17645	0.624084	-0.000152588	
6.1734	0.618896	-0.000915527	
6.17279	0.614319	0.000152588	
6.17218	0.609131	0.000457764	
6.17188	0.606995	-0.000152588	
6.17218	0.603638	0.000457764	
6.17157	0.59906	0.000457764	
6.17249	0.595093	0.000457764	
6.17188	0.590515	0.000762939	
6.17188	0.584717	0.000457764	
6.16882	0.579834	0.000152588	
6.1673	0.577087	0.000305176	
6.16638	0.574951	0.000305176	
6.16699	0.570068	0	
6.1673	0.564575	-0.000457764	
6.16669	0.560608	-0.000152588	
6.16699	0.55542	0.000457764	
6.16699	0.552368	0	
6.16638	0.549927	0.000305176	
6.16394	0.545349	0	
6.16211	0.541382	0.000610352	
6.1618	0.535889	0.0012207	
6.16241	0.531006	0.00167847	
6.16211	0.525513	0.000152588	
6.16272	0.523682	0.000457764	
6.16241	0.520935	0.000762939	
6.16211	0.516663	0.000457764	
6.1615	0.51178	0.000305176	
6.15906	0.506287	0.000305176	
6.15784	0.501404	0.000152588	
6.15784	0.499268	0.000457764	
6.15723	0.495605	0.000152588	
6.15662	0.491943	0.000762939	
6.15723	0.486755	0.000457764	
6.15784	0.481873	0.00106812	
6.15753	0.479736	0.000762939	
6.15723	0.476379	0.000610352	
6.15387	0.471497	0.00106812	
6.15234	0.46814	0.000610352	
6.15234	0.463257	0.000457764	
6.15234	0.457458	-0.000152588	
6.15173	0.454407	-0.000457764	
6.15234	0.452576	0.000305176	
6.15234	0.447998	0.000305176	
6.15234	0.44281	-0.000152588	
6.15204	0.437927	0.000305176	
6.14929	0.435181	0.000305176	
6.14807	0.432129	0.000152588	
6.14838	0.427856	0.000457764	
6.14685	0.423889	0.000610352	
6.14716	0.419922	0.000152588	
6.14807	0.417175	0.000152588	
6.14655	0.413208	0.000762939	
6.14777	0.40863	-0.000152588	
6.14685	0.403442	-0.000457764	
6.14441	0.401306	0.000152588	
6.14319	0.397949	0.000152588	
6.14227	0.393677	0.000152588	
6.14227	0.389709	0.000152588	
6.14136	0.386047	0	
6.14258	0.383911	0.000762939	
6.14227	0.379333	0.000762939	
6.14258	0.374451	0.00137329	
6.14166	0.371704	0.000610352	
6.13953	0.368958	0.000457764	
6.1377	0.36377	0.000610352	
6.138	0.359497	0.000152588	
6.13708	0.35675	0	
6.13708	0.354004	0	
6.138	0.349731	0.000457764	
6.13831	0.345154	0.000457764	
6.13739	0.342102	0	
6.13678	0.339966	0.000762939	
6.13373	0.335083	0.000610352	
6.13373	0.3302	0.00106812	
6.13281	0.326538	0.000610352	
6.13251	0.324402	0.000610352	
6.1322	0.320435	0.00106812	
6.13281	0.315552	0.000457764	
6.1322	0.31311	0.000457764	
6.1322	0.310364	0.000152588	
6.1319	0.305176	-0.00106812	
6.13251	0.303345	0.000152588	
6.12885	0.300293	0.000305176	
6.12793	0.296631	0	
6.12701	0.293579	0.000152588	
6.12793	0.290833	0.000305176	
6.12793	0.28595	0.000762939	
6.12793	0.281067	0.000457764	
6.12793	0.278931	0.000457764	
6.12793	0.275574	0.000305176	
6.12793	0.271301	0.000305176	
6.12427	0.269165	0.000457764	
6.12335	0.265503	0.000152588	
6.12244	0.261536	-0.000610352	
6.12213	0.259094	0	
6.12213	0.256042	0.000305176	
6.12244	0.252075	0.000152588	
6.12213	0.248718	0.000305176	
6.12244	0.246277	-0.000152588	
6.11908	0.242004	0.000457764	
6.11847	0.238647	0.000762939	
6.11755	0.236816	0.00137329	
6.11694	0.231323	0.000457764	
6.11786	0.229492	0.000457764	
6.11786	0.226746	0.00106812	
6.11786	0.224915	0.000762939	
6.11755	0.222473	0.000305176	
6.11755	0.217285	0.000305176	
6.1145	0.214539	0.000457764	
6.11237	0.212097	0.000457764	
6.11267	0.207825	-0.000305176	
6.11359	0.204773	0.000915527	
6.11267	0.202637	0.000305176	
6.11237	0.199585	0.00137329	
6.11298	0.196838	0.000610352	
6.11267	0.192566	0.000305176	
6.11267	0.189819	0.000610352	
6.10962	0.186768	0.000305176	
6.1087	0.1828	0.000762939	
6.10779	0.180054	0.000305176	
6.10809	0.177002	-0.000762939	
6.10748	0.175171	0.000152588	
6.10809	0.173035	0.000305176	
6.10779	0.167847	0	
6.1087	0.16571	0.000305176	
6.10779	0.162964	0	
6.10504	0.160828	0.000457764	
6.10352	0.157776	0.000457764	
6.10291	0.15564	0.000305176	
6.10352	0.153198	0.000152588	
6.10291	0.148621	0.000305176	
6.10291	0.145874	0.000305176	
6.10291	0.142822	-0.000152588	
6.10291	0.140991	-0.000457764	
6.1026	0.138855	-0.000152588	
6.09894	0.135803	0.000152588	
6.09802	0.133362	-0.000152588	
6.09772	0.13092	0.000305176	
6.09741	0.129089	0.000152588	
6.09802	0.124512	0.000305176	
6.09772	0.12085	0.0012207	
6.09833	0.119019	0.0012207	
6.09802	0.116272	0.000305176	
6.09741	0.114136	0.000610352	
6.09436	0.111694	0.000762939	
6.09375	0.108337	0.000610352	
6.09283	0.106506	0.000152588	
6.09375	0.104065	0.000305176	
6.09283	0.102234	0.000305176	
6.09314	0.098877	0.000610352	
6.09222	0.0967407	-0.000152588	
6.09344	0.0946045	0.000762939	
6.09253	0.0915527	0.000457764	
6.09009	0.0894165	0.00106812	
6.08856	0.0875854	0.000762939	
6.08795	0.0845337	0.000305176	
6.08826	0.0823975	0.000610352	
6.08765	0.0808716	0.000152588	
6.08795	0.0778198	0.000457764	
6.08887	0.0747681	0	
6.08765	0.0738525	-0.000457764	
6.08795	0.0708008	0.000152588	
6.0849	0.0680542	0.000457764	
6.08459	0.0653076	0	
6.08307	0.0628662	0.000305176	
6.08276	0.0613403	0	
6.08276	0.0588989	0.000305176	
6.08307	0.0564575	0.000457764	
6.08337	0.0537109	0.000610352	
6.08307	0.0506592	0.000152588	
6.08002	0.0479126	0.000152588	
6.07849	0.0454712	0.000762939	
6.07819	0.043335	-0.000152588	
6.07819	0.039978	-0.000610352	
6.07849	0.0384521	0.000305176	
6.07819	0.0360107	-0.000152588	
6.07819	0.0335693	0.000305176	
6.07849	0.032959	0.000610352	
6.07819	0.0314331	0.000457764	
6.07452	0.0289917	0.000610352	
6.0733	0.0256348	0.000762939	
6.073	0.0238037	0.0012207	
6.0733	0.0216675	0.000610352	
6.07361	0.0189209	0.000610352	
6.0733	0.0158691	0.000457764	
6.0733	0.0146484	0.000762939	
6.0733	0.0134277	0.000152588	
6.073	0.0115967	0.000457764	
6.07025	0.00976563	0.000762939	
6.06934	0.00671387	0.000152588	
6.06812	0.00366211	-0.000152588	
6.06781	0.00183105	0.000915527	
6.06812	-0.000915527	0.000610352	
6.06842	-0.000915527	0.00137329	
6.06842	-0.00274658	0.000915527	
6.06842	-0.00457764	0.000457764	
6.06781	-0.00762939	0.000457764	
6.06567	-0.010376	0.000457764	
6.06354	-0.0125122	0.000457764	
6.06384	-0.0149536	-0.000152588	
6.06384	-0.015564	-0.000762939	
6.06293	-0.017395	-0.000152588	
6.06354	-0.0195313	0.000457764	
6.06354	-0.022583	0	
6.06262	-0.0253296	0.000152588	
6.06049	-0.0253296	0	
6.05835	-0.027771	0.000610352	
6.05835	-0.0296021	0.000457764	
6.05896	-0.0323486	0.000305176	
6.05835	-0.03479	0.000152588	
6.05835	-0.0350952	0.000305176	
6.05835	-0.038147	0.000610352	
6.05896	-0.039978	0.000152588	
6.05835	-0.0427246	-0.000457764	
6.0556	-0.0442505	0.000152588	
6.05377	-0.0454712	0.000152588	
6.05377	-0.0473022	0.000152588	
6.05347	-0.0497437	0	
6.05347	-0.0500488	0	
6.05316	-0.0515747	0.000457764	
6.05316	-0.0537109	0.00106812	
6.05377	-0.0567627	0.000915527	
6.05286	-0.0585938	0.000152588	
6.05042	-0.0598145	0.000305176	
6.04889	-0.0622559	0.000457764	
6.04889	-0.0643921	0.000305176	
6.04858	-0.0650024	0.000457764	
6.04889	-0.0668335	0.000305176	
6.04889	-0.0683594	0.000305176	
6.04797	-0.0717163	0.000610352	
6.04736	-0.0738525	0.000152588	
6.04584	-0.0747681	0.000762939	
6.04431	-0.0772095	0.000610352	
6.0434	-0.078125	0.00106812	
6.0434	-0.0796509	0.000915527	
6.0434	-0.0817871	0.000457764	
6.04401	-0.0836182	0.000762939	
6.0434	-0.0842285	0.000457764	
6.0437	-0.0863647	0.000915527	
6.0437	-0.0894165	0.000305176	
6.04004	-0.0915527	-0.000762939	
6.03943	-0.0946045	0.000305176	
6.03851	-0.0946045	0.000762939	
6.03912	-0.0967407	0	
6.03882	-0.098877	0.000457764	
6.03851	-0.098877	0.000305176	
6.03912	-0.101318	0.000610352	
6.03851	-0.10376	0.000457764	
6.03821	-0.10376	0.000457764	
6.03546	-0.106201	0.000610352	
6.03394	-0.108337	-0.000305176	
6.03424	-0.108948	0.000915527	
6.03363	-0.111084	0	
6.03424	-0.11322	-0.000610352	
6.03394	-0.114136	0	
6.03394	-0.115662	0.000152588	
6.03333	-0.118713	-0.000152588	
6.03302	-0.118713	0.000152588	
6.03058	-0.120239	0.000152588	
6.02905	-0.122681	0.000610352	
6.02814	-0.124207	0.00106812	
6.02875	-0.125732	0.0012207	
6.02844	-0.128174	0.000762939	
6.02936	-0.128174	0.000610352	
6.02844	-0.131226	0.000457764	
6.02875	-0.133362	0.000762939	
6.02539	-0.133362	0.000457764	
6.02386	-0.136414	0	
6.02386	-0.13855	0.000305176	
6.02356	-0.13855	0.000457764	
6.02356	-0.140991	0.000152588	
6.02356	-0.142822	0.000457764	
6.02386	-0.142822	0.000305176	
6.02448	-0.145569	0.0012207	
6.02203	-0.147095	0.000610352	
6.02142	-0.148621	0.000610352	
6.01929	-0.148621	0.000610352	
6.01868	-0.150146	0.000305176	
6.01929	-0.152588	0.000762939	
6.01929	-0.152893	0.000457764	
6.01898	-0.15564	-0.00106812	
6.01898	-0.157776	0.000152588	
6.01929	-0.157776	0	
6.01868	-0.159607	-0.000152588	
6.01563	-0.162354	0.000305176	
6.01501	-0.162354	0.000152588	
6.0144	-0.16449	0.000305176	
6.01379	-0.166626	0.000152588	
6.01379	-0.167542	0.000610352	
6.0144	-0.167847	0	
6.0141	-0.169983	0.000152588	
6.0144	-0.171814	0.000915527	
6.0144	-0.172424	0.000610352	
6.01074	-0.174561	-0.000610352	
6.00891	-0.177002	0	
6.00922	-0.177307	0.000457764	
6.00952	-0.179443	0	
6.00891	-0.18219	0.000457764	
6.0083	-0.182495	-0.000152588	
6.00891	-0.184631	0.000457764	
6.00891	-0.186462	0.00106812	
6.00891	-0.187378	0.00152588	
6.00861	-0.187378	0.000610352	
6.00586	-0.188904	0.000762939	
6.00433	-0.190735	0.000457764	
6.00403	-0.191956	0.000610352	
6.00372	-0.194092	0.000305176	
6.00403	-0.196228	0.000457764	
6.00433	-0.197754	0.000457764	
6.00403	-0.197449	0.000610352	
6.00372	-0.199585	0	
6.00311	-0.201111	0.000457764	
6.00128	-0.202332	0.000915527	
6.00006	-0.204163	0.00106812	
5.99976	-0.206604	0.00106812	
5.99976	-0.206909	0.000457764	
5.99915	-0.208435	0.000457764	
5.99945	-0.211182	0.000457764	
5.99915	-0.211792	0.000915527	
5.99976	-0.212097	0.000457764	
5.99915	-0.213928	-0.000457764	
5.9964	-0.21637	-0.000152588	
5.99396	-0.21637	0.000305176	
5.99426	-0.218506	-0.000305176	
5.99457	-0.220947	0.000457764	
5.99457	-0.222473	0	
5.99457	-0.221252	0.000457764	
5.99426	-0.223999	0	
5.99487	-0.226135	0.000457764	
5.99457	-0.226746	0.000457764	
5.99457	-0.228271	-0.000152588	
5.9906	-0.231323	0.000457764	
5.98999	-0.231934	0.000152588	
5.98969	-0.231628	-0.000457764	
5.98969	-0.233765	0	
5.98938	-0.236511	0.000457764	
5.98999	-0.235901	0.000152588	
5.98999	-0.238342	0.000305176	
5.98907	-0.240784	-0.000305176	
5.98907	-0.241089	0.000610352	
5.98816	-0.241089	0.000610352	
5.98572	-0.24353	0.00183105	
5.9845	-0.245056	0.000610352	
5.98419	-0.245972	0.000762939	
5.9848	-0.248718	0.000305176	
5.9848	-0.250854	0.000610352	
5.9848	-0.250854	0.000305176	
5.98419	-0.250854	0.000305176	
5.98419	-0.253296	0.000305176	
5.98389	-0.255432	0.000457764	
5.98206	-0.255737	0.000305176	
5.97961	-0.257874	0.000610352	
5.9787	-0.260315	0.00106812	
5.97931	-0.260925	0.00106812	
5.97992	-0.26062	0.000762939	
5.97931	-0.262451	0.000457764	
5.97931	-0.265198	0.000610352	
5.98022	-0.265198	0.000915527	
5.97931	-0.267639	0.000915527	
5.97931	-0.269775	0.000152588	
5.97595	-0.270691	-0.000762939	
5.97504	-0.270691	0.000305176	
5.97473	-0.272522	0.000610352	
5.97443	-0.275269	-0.000152588	
5.97443	-0.275879	0.000457764	
5.97473	-0.275574	0.000152588	
5.97473	-0.277405	0.000610352	
5.97473	-0.279236	0.000305176	
5.97504	-0.280151	0.000610352	
5.97504	-0.283203	0.000305176	
5.97198	-0.284729	0	
5.97015	-0.28595	0.000915527	
5.97015	-0.285034	-0.000152588	
5.96954	-0.287476	-0.000457764	
5.96924	-0.289612	0.000152588	
5.97015	-0.290222	0.000457764	
5.96924	-0.292664	0	
5.96985	-0.294495	0.000457764	
5.96985	-0.295105	-0.000152588	
5.97015	-0.294189	0.000762939	
5.96893	-0.297241	0.000762939	
5.96649	-0.299072	0.00152588	
5.96466	-0.299988	0.000457764	
5.96497	-0.300293	0.000610352	
5.96466	-0.302429	0.000305176	
5.96466	-0.304565	0.000915527	
5.96558	-0.304871	0.000152588	
5.96466	-0.307312	0.000305176	
5.96497	-0.309448	0.000152588	
5.96466	-0.310364	0.000457764	
5.96436	-0.310364	0	
5.9613	-0.311584	0.000457764	
5.95978	-0.314941	0.000915527	
5.95978	-0.314941	0.00106812	
5.96039	-0.316467	0.000762939	
5.95978	-0.318604	0.000610352	
5.96008	-0.319519	0.000610352	
5.96008	-0.319519	0.000610352	
5.95947	-0.32135	0.000762939	
5.96008	-0.323792	0	
5.96069	-0.324097	-0.000610352	
5.95886	-0.324707	-0.000152588	
5.95612	-0.325928	0.000762939	
5.9549	-0.32959	0	
5.9549	-0.329285	0.000610352	
5.9552	-0.331116	0.000152588	
5.9549	-0.334167	0.000457764	
5.9552	-0.333862	0.000152588	
5.9549	-0.333862	0.000305176	
5.95459	-0.336609	0.000152588	
5.95428	-0.338745	0	
5.95581	-0.339661	0.000610352	
5.95551	-0.340576	0.000305176	
5.95459	-0.343628	-0.000457764	
5.95184	-0.344543	0.000152588	
5.95032	-0.343323	0.000305176	
5.94971	-0.346069	-0.000152588	
5.95032	-0.348206	0	
5.95032	-0.349121	-0.000152588	
5.94971	-0.349426	0.000305176	
5.95001	-0.350952	0.000610352	
5.94971	-0.352783	0.00137329	
5.95001	-0.354004	0.000305176	
5.95001	-0.356445	0.000610352	
5.9494	-0.358582	0.000152588	
5.94727	-0.358887	0.000457764	
5.94574	-0.358887	0.000152588	
5.94482	-0.361328	0.000152588	
5.94421	-0.363159	0.000152588	
5.94482	-0.363464	0.000610352	
5.94513	-0.364075	0	
5.94482	-0.365601	0.000762939	
5.94513	-0.367432	0.000610352	
5.94482	-0.368652	0.00106812	
5.94452	-0.370483	0.000915527	
5.94482	-0.37262	0.000457764	
5.94513	-0.37323	0.000457764	
5.94147	-0.374146	0.000915527	
5.94055	-0.375061	0.000915527	
5.93964	-0.378113	0.000152588	
5.94025	-0.378418	-0.000610352	
5.93994	-0.378418	-0.000152588	
5.94025	-0.380554	0.000762939	
5.94025	-0.382996	0.000152588	
5.93994	-0.383301	0.000305176	
5.94025	-0.384827	0.000305176	
5.93964	-0.387878	0.000610352	
5.93964	-0.388489	0.000305176	
5.94025	-0.388184	0.000457764	
5.93994	-0.390015	0	
5.93689	-0.392456	0	
5.93567	-0.392456	0.000457764	
5.93506	-0.392761	-0.000152588	
5.93536	-0.395203	-0.000610352	
5.93475	-0.397949	-0.000152588	
5.93445	-0.398254	0	
5.93506	-0.39978	0	
5.93536	-0.401917	0.000457764	
5.93506	-0.403442	0.000305176	
5.93567	-0.402832	0.000457764	
5.93506	-0.404663	0.000610352	
5.93506	-0.407715	0.00137329	
5.93506	-0.407715	0.000457764	
5.93475	-0.407715	0.000305176	
5.9317	-0.409241	0.000610352	
5.93048	-0.411987	0.000152588	
5.92957	-0.412903	0.000305176	
5.93048	-0.414429	0.000305176	
5.93018	-0.41748	0.000152588	
5.93018	-0.417786	0.000762939	
5.93048	-0.418091	-0.000152588	
5.93018	-0.419006	0.000610352	
5.93048	-0.422363	0.000762939	
5.92987	-0.422974	0.00106812	
5.92987	-0.422363	0.000762939	
5.93048	-0.42511	0.000457764	
5.93018	-0.426331	0.000762939	
5.93048	-0.427246	0.000610352	
5.92682	-0.429382	0.000915527	
5.9259	-0.432129	0.000152588	
5.92529	-0.433044	-0.0012207	
5.92499	-0.431824	0.000457764	
5.92499	-0.434265	0.000305176	
5.92529	-0.437012	0	
5.92499	-0.437012	0.000152588	
5.92529	-0.437622	0.000457764	
5.92529	-0.439148	0.000610352	
5.92529	-0.441589	0.000457764	
5.9256	-0.4422	0.000305176	
5.92499	-0.442505	0.000152588	
5.92468	-0.443726	-0.000152588	
5.9256	-0.446777	0.000610352	
5.9256	-0.446777	0.000152588	
5.92529	-0.447083	-0.000610352	
5.92285	-0.449219	0.000152588	
5.92041	-0.45166	0	
5.92041	-0.452271	0	
5.92041	-0.455322	0.000152588	
5.9201	-0.455627	0.000152588	
5.92041	-0.456543	0.000610352	
5.92072	-0.456543	0.00106812	
5.92102	-0.458679	0.0012207	
5.92041	-0.461731	0.000610352	
5.92072	-0.462036	0.000305176	
5.9201	-0.462036	0.000305176	
5.92041	-0.463867	0.000457764	
5.91949	-0.466003	0.000152588	
5.92072	-0.466919	0.000457764	
5.92041	-0.466309	0.000305176	
5.9201	-0.46875	0.000457764	
5.92041	-0.470276	0	
5.9201	-0.471191	0.000762939	
5.91766	-0.471191	0.000762939	
5.91461	-0.473633	0.0012207	
5.91553	-0.475464	0.000915527	
5.91583	-0.476074	0.000457764	
5.91553	-0.476379	0.000457764	
5.91492	-0.479126	0.000305176	
5.91583	-0.480347	0.000457764	
5.91553	-0.481262	0.000457764	
5.91553	-0.481262	-0.000762939	
5.91492	-0.482788	-0.000152588	
5.91553	-0.486145	0.000152588	
5.91553	-0.486145	0.000457764	
5.91553	-0.486755	0.000152588	
5.91553	-0.488281	0.000152588	
5.91553	-0.490417	0.000457764	
5.91522	-0.491638	0.000457764	
5.91614	-0.491028	0.000610352	
5.91492	-0.492859	0.000152588	
5.91553	-0.495605	0	
5.91553	-0.496216	0.000762939	
5.91522	-0.495605	0.000305176	
5.91217	-0.498047	-0.0012207	
5.91034	-0.500488	0.000305176	
5.91095	-0.501099	0.000305176	
5.90973	-0.501404	0.000152588	
5.91064	-0.50354	0.000152588	
5.91095	-0.505066	0.000152588	
5.91003	-0.505371	0.000457764	
5.91064	-0.505676	0.000762939	
5.91064	-0.507813	0.00152588	
5.91003	-0.509644	0.000762939	
5.91034	-0.511169	0.000457764	
5.90973	-0.510254	0.000457764	
5.91095	-0.512695	0.000457764	
5.91095	-0.515442	0.000305176	
5.91064	-0.515747	0.000305176	
5.91095	-0.515442	0.000305176	
5.91125	-0.518188	0.000915527	
5.91095	-0.52002	0.000305176	
5.91064	-0.520325	0.000610352	
5.91095	-0.52063	0.000762939	
5.91003	-0.522156	0.00106812	
5.91003	-0.524597	0.000915527	
5.91003	-0.525208	0.000305176	
5.91034	-0.524902	0.000305176	
5.91125	-0.527954	0.000762939	
5.91003	-0.52948	0.000610352	
5.90729	-0.530396	0.000152588	
5.90546	-0.531006	-0.000610352	
5.90576	-0.533142	0	
5.90607	-0.534363	0.000152588	
5.90546	-0.535583	0.000152588	
5.90515	-0.534973	0.000152588	
5.90546	-0.538025	0.000457764	
5.90607	-0.539551	0.000305176	
5.90576	-0.540161	0	
5.90546	-0.540771	0	
5.90546	-0.540161	0.000457764	
5.90576	-0.542908	-0.000152588	
5.90515	-0.544739	0.00106812	
5.90485	-0.545349	0.000305176	
5.90546	-0.545044	-0.000610352	
5.90515	-0.546875	0	
5.90546	-0.549622	0.000152588	
5.90515	-0.550232	-0.000305176	
5.90546	-0.550537	0	
5.90546	-0.552368	0.000305176	
5.90515	-0.554199	0.000610352	
5.90546	-0.555115	0.000762939	
5.90515	-0.555115	0.0012207	
5.90546	-0.556641	0.000457764	
5.90485	-0.559082	0.000305176	
5.90546	-0.559692	0.000305176	
5.90546	-0.559998	0.000457764	
5.90576	-0.559692	0.000152588	
5.90546	-0.562744	0.000610352	
5.90576	-0.563965	0.000457764	
5.90576	-0.56488	0.000610352	
5.90576	-0.564575	0	
5.90576	-0.566406	0.000915527	
5.90546	-0.569458	0.00106812	
5.90607	-0.569763	0.000762939	
5.90576	-0.569763	0.000457764	
5.90576	-0.569153	0.000610352	
5.90546	-0.571899	0.000762939	
5.90546	-0.574341	0.000610352	
5.90515	-0.574646	0.000457764	
5.90515	-0.574341	0.000305176	
5.90515	-0.577698	-0.000762939	
5.90576	-0.578918	0	
5.90576	-0.579224	0.000457764	
5.90515	-0.579834	0.000152588	
5.90515	-0.582581	0.000305176	
5.90546	-0.583801	0.000305176	
5.90515	-0.584717	0.000610352	
5.90546	-0.584412	0.000610352	
5.90546	-0.584717	0.000457764	
5.90546	-0.587158	0.000457764	
5.90576	-0.588684	0.000152588	
5.90546	-0.589294	0.000762939	
5.90576	-0.5896	0.000457764	
5.90515	-0.589905	-0.000610352	
5.90546	-0.591736	0.000152588	
5.90607	-0.593262	0.000457764	
5.90576	-0.594482	0.000152588	
5.90546	-0.593872	0.000152588	
5.90546	-0.596924	0	
5.90576	-0.59845	0.000457764	
5.90576	-0.59906	0.0012207	
5.90546	-0.599365	0.00137329	
5.90576	-0.599365	0.000610352	
5.90546	-0.601196	0.000457764	
5.90515	-0.603333	0.000152588	
5.90546	-0.603943	0.000915527	
5.90485	-0.604248	0.000457764	
5.90515	-0.604248	0.000457764	
5.90546	-0.606079	0.000152588	
5.90515	-0.608215	0.000457764	
5.90576	-0.609436	0.000305176	
5.90576	-0.609436	0.000457764	
5.90515	-0.611267	0.000762939	
5.90576	-0.613403	0.00106812	
5.90515	-0.614014	0.00106812	
5.90607	-0.613708	0.000610352	
5.90576	-0.613403	0.000305176	
5.90546	-0.61615	0.000915527	
5.90607	-0.618591	0.000762939	
5.90576	-0.619812	0.000305176	
5.90546	-0.619507	-0.000610352	
5.90637	-0.618896	-0.000152588	
5.90576	-0.621338	0.000152588	
5.90576	-0.623169	0.000152588	
5.90485	-0.624084	0.000152588	
5.90515	-0.62439	0.000305176	
5.90546	-0.624084	0.000457764	
5.90515	-0.625916	0.000457764	
5.90576	-0.628357	0.000305176	
5.90515	-0.628357	0.000305176	
5.90546	-0.628357	-0.000152588	
5.90546	-0.628052	0.00106812	
5.90576	-0.628357	0.000152588	
5.90576	-0.630493	-0.000610352	
5.90546	-0.632935	0.000152588	
5.90546	-0.633545	0.000305176	
5.90576	-0.634155	0	
5.90546	-0.632935	0.000305176	
5.90546	-0.635681	0.000152588	
5.90485	-0.638428	0.000457764	
5.90637	-0.638123	0.000610352	
5.90576	-0.638123	0.00137329	
5.90485	-0.638123	0.000915527	
5.90607	-0.640564	0.000915527	
5.90546	-0.643005	0.000305176	
5.90637	-0.643311	0.000762939	
5.90576	-0.643005	0.000457764	
5.90607	-0.6427	0.000457764	
5.90576	-0.643005	0.000457764	
5.90607	-0.645142	0.000305176	
5.90576	-0.647888	-0.000152588	
5.90546	-0.647583	0.000457764	
5.90546	-0.648193	0.000915527	
5.90546	-0.647583	0.00167847	
5.90607	-0.65033	0.000915527	
5.90546	-0.652466	0.000305176	
5.90515	-0.653076	0.000762939	
5.90546	-0.653076	0.000457764	
5.90607	-0.652771	0.00137329	
5.90576	-0.653381	0.000305176	
5.90546	-0.655212	-0.000305176	
5.90637	-0.657349	-0.000152588	
5.90546	-0.657654	0	
5.90546	-0.658264	0.000152588	
5.90576	-0.657959	0.000305176	
5.90546	-0.657959	0.000305176	
5.90607	-0.660095	0.000610352	
5.90576	-0.662231	0.000305176	
5.90607	-0.662231	0.000762939	
5.90607	-0.662231	0.000152588	
5.90546	-0.663452	0.000152588	
5.90576	-0.662537	0.000762939	
5.90851	-0.664673	-0.000152588	
5.91034	-0.666809	-0.000305176	
5.90973	-0.66803	0.000152588	
5.91125	-0.66803	0.000152588	
5.91064	-0.667419	0	
5.91034	-0.667725	0	
5.91064	-0.670166	0	
5.91034	-0.671997	0.000305176	
5.91064	-0.671997	0.00106812	
5.91095	-0.672607	0.00137329	
5.91034	-0.672913	0.000305176	
5.91034	-0.672607	0.00106812	
5.91064	-0.674438	0.000305176	
5.91064	-0.67688	0.000457764	
5.91064	-0.678101	0.000152588	
5.91125	-0.67749	0.000457764	
5.91064	-0.67749	0.000457764	
5.91034	-0.67749	0.000457764	
5.91003	-0.67749	0.000457764	
5.91095	-0.679932	0.000457764	
5.91034	-0.682068	0.000457764	
5.91034	-0.682678	0.00167847	
5.91064	-0.681763	0.000915527	
5.91034	-0.682373	0.000762939	
5.91095	-0.682373	0.000305176	
5.91125	-0.682373	0.000762939	
5.91064	-0.684814	0.000915527	
5.91064	-0.687256	0.000152588	
5.91095	-0.687561	-0.000457764	
5.9137	-0.687256	-0.000610352	
5.91553	-0.687561	-0.000152588	
5.91522	-0.687256	0.000152588	
5.91522	-0.686646	0.000457764	
5.91492	-0.689392	0	
5.91522	-0.692139	0.000457764	
5.91553	-0.692139	0.000610352	
5.91553	-0.692749	0.000305176	
5.91461	-0.693054	0.000152588	
5.91492	-0.692444	0.000305176	
5.91583	-0.692139	0.000762939	
5.91522	-0.692444	-0.000152588	
5.91522	-0.694275	-0.000305176	
5.91583	-0.696716	0.000152588	
5.91583	-0.697327	0.000305176	
5.91553	-0.697021	0.000305176	
5.91583	-0.697327	0	
5.91553	-0.697021	0.000305176	
5.91553	-0.696106	0.000762939	
5.91522	-0.696716	0.00106812	
5.91492	-0.697021	0.0012207	
5.91492	-0.699463	0.000457764	
5.91553	-0.701599	0.000762939	
5.91888	-0.701599	0.000610352	
5.9198	-0.702209	0.000762939	
5.9201	-0.702209	0.000305176	
5.9201	-0.702209	0.000762939	
5.9201	-0.701904	0.000457764	
5.9201	-0.701599	0.000762939	
5.92072	-0.701904	0.000457764	
5.92041	-0.701904	0	
5.9201	-0.701904	0.000457764	
5.92072	-0.704346	0.00167847	
5.9201	-0.706177	0.000762939	
5.9201	-0.706177	0.000305176	
5.9201	-0.706787	0.000610352	
5.92041	-0.707092	0.000457764	
5.92072	-0.706787	0.000762939	
5.92072	-0.706482	0.000762939	
5.91949	-0.707397	-0.000305176	
5.91949	-0.706787	-0.000305176	
5.9198	-0.706787	0	
5.92407	-0.706787	0.000152588	
5.92529	-0.706787	0.000305176	
5.92468	-0.706787	0.000152588	
5.9256	-0.706787	0.000762939	
5.92529	-0.707092	0.000610352	
5.92529	-0.706482	0.000610352	
5.92499	-0.707703	0.000152588	
5.92529	-0.706787	0.000152588	
5.9256	-0.707092	0.000305176	
5.92499	-0.706787	-0.000457764	
5.92529	-0.707397	-0.000152588	
5.92529	-0.707092	0	
5.9256	-0.706787	0	
5.92529	-0.707092	0	
5.92529	-0.707397	0.000610352	
5.92499	-0.707397	0	
5.92529	-0.706787	0.000305176	
5.92865	-0.706177	0.0012207	
5.93048	-0.706787	0.0012207	
5.93018	-0.706787	0	
5.92987	-0.706787	0.000762939	
5.93079	-0.707397	0.000152588	
5.93018	-0.707397	0.000610352	
5.93079	-0.706482	0.000305176	
5.92987	-0.707092	0.000152588	
5.92987	-0.706482	0.000305176	
5.93048	-0.706482	0.000610352	
5.93048	-0.707397	0.000152588	
5.93048	-0.707397	0.000457764	
5.92987	-0.706482	0.000305176	
5.93018	-0.706482	0.0012207	
5.92957	-0.704651	0.000610352	
5.93079	-0.701904	0.000457764	
5.93323	-0.701599	0.000457764	
5.93475	-0.701904	0.000457764	
5.93506	-0.701294	0.000915527	
5.93536	-0.701904	0.000305176	
5.93567	-0.701904	-0.000305176	
5.93506	-0.701599	-0.000457764	
5.93506	-0.700073	0	
5.93536	-0.697632	0.000457764	
5.93536	-0.697632	0.000152588	
5.93475	-0.697327	0	
5.93536	-0.697021	0.000305176	
5.93536	-0.697021	0.000457764	
5.93536	-0.69519	0.000152588	
5.93536	-0.693359	0.000152588	
5.93872	-0.691833	0.000305176	
5.93933	-0.692139	0.000152588	
5.93994	-0.692749	-0.000152588	
5.93994	-0.690308	-0.000457764	
5.94025	-0.687866	-0.000152588	
5.94025	-0.686951	0.000152588	
5.93964	-0.687561	0.000305176	
5.93994	-0.68512	0	
5.93994	-0.682983	-0.000152588	
5.93994	-0.682678	0.000152588	
5.93994	-0.682373	0.0012207	
5.93964	-0.680542	0.00137329	
5.94025	-0.678101	0.000457764	
5.93994	-0.677185	0.000915527	
5.9433	-0.675049	0.000762939	
5.94452	-0.673218	0.000762939	
5.94543	-0.672607	0.000457764	
5.94543	-0.670776	0.000305176	
5.94482	-0.66803	0.000457764	
5.94574	-0.667725	0.000457764	
5.94543	-0.666199	0.000457764	
5.94482	-0.663452	0.000152588	
5.94513	-0.662537	0	
5.94513	-0.6604	0.00167847	
5.94482	-0.658569	0.000610352	
5.94543	-0.656433	0.000762939	
5.94818	-0.653381	0.000915527	
5.94971	-0.65094	0.000610352	
5.94971	-0.648193	0.000915527	
5.95001	-0.647888	0.000152588	
5.95001	-0.646057	-0.000305176	
5.95032	-0.643921	-0.000610352	
5.95062	-0.641174	0	
5.94971	-0.639038	0.000457764	
5.9494	-0.635986	0.000152588	
5.95001	-0.634766	0.000152588	
5.94971	-0.631409	0.000457764	
5.9494	-0.628662	0.000457764	
5.95001	-0.625916	0.000457764	
5.95276	-0.62439	0.000457764	
5.95459	-0.621033	0.000457764	
5.95459	-0.617981	0.000305176	
5.9552	-0.614319	0	
5.95459	-0.612183	-0.000305176	
5.9549	-0.609436	0	
5.9549	-0.606689	0.000457764	
5.95459	-0.603027	0.000152588	
5.9549	-0.599976	0.000152588	
5.9549	-0.596924	0	
5.9552	-0.592041	0.000610352	
5.95825	-0.590515	0.00106812	
5.95978	-0.587769	0.00152588	
5.95978	-0.582886	0.000457764	
5.95978	-0.580139	0.00106812	
5.96008	-0.577087	0.000762939	
5.95978	-0.572815	0.000762939	
5.95978	-0.570068	0.000152588	
5.95917	-0.568237	0.000305176	
5.96008	-0.563049	0.000305176	
5.96039	-0.558472	0.000457764	
5.96008	-0.555725	0.000305176	
5.96344	-0.552979	0.000152588	
5.96436	-0.548401	0.000152588	
5.96527	-0.543823	0.00137329	
5.96497	-0.538635	0.000610352	
5.96497	-0.535889	0.000610352	
5.96436	-0.532837	0.000457764	
5.96436	-0.528259	0.000610352	
5.96466	-0.524292	0.000762939	
5.96466	-0.518494	0.000457764	
5.96497	-0.514526	-0.000457764	
5.96497	-0.509033	-0.000305176	
5.96832	-0.503845	-0.000152588	
5.96893	-0.501404	0.000305176	
5.96985	-0.498962	0.000457764	
5.96954	-0.494995	0	
5.96985	-0.489502	0.000152588	
5.97046	-0.484314	0.000610352	
5.97015	-0.479431	0.000457764	
5.96985	-0.474854	0	
5.96954	-0.469971	0.000457764	
5.97015	-0.465393	0.000610352	
5.9729	-0.460205	0	
5.97473	-0.455627	-0.000305176	
5.97473	-0.450745	0.000152588	
5.97473	-0.444946	0.000152588	
5.97473	-0.440979	0.000152588	
5.97443	-0.435181	0	
5.97504	-0.430298	-0.000152588	
5.97473	-0.423584	0	
5.97504	-0.41687	0.00137329	
5.97534	-0.411377	0.00106812	
5.97809	-0.406189	0.000305176	
5.979	-0.401917	0.000915527	
5.979	-0.396423	0.000762939	
5.97961	-0.392151	0.000610352	
5.98022	-0.386963	0.000457764	
5.97961	-0.379944	0.000762939	
5.98022	-0.372314	0.000152588	
5.97931	-0.367126	0.000457764	
5.97992	-0.362549	0.000305176	
5.98267	-0.357971	0.000305176	
5.98389	-0.349731	0.000457764	
5.98419	-0.343018	0.00152588	
5.9845	-0.337524	0.000457764	
5.9845	-0.333252	0.000610352	
5.9845	-0.328064	0.000457764	
5.9848	-0.320435	0.000762939	
5.98511	-0.313416	0.000610352	
5.9845	-0.308228	0.000457764	
5.9848	-0.301208	-0.000305176	
5.98816	-0.294495	-0.000305176	
5.98907	-0.289307	-0.000152588	
5.98938	-0.283203	0.000305176	
5.98999	-0.276489	0.000152588	
5.98907	-0.270386	0	
5.98938	-0.263367	0.000152588	
5.98938	-0.256958	0.000305176	
5.98907	-0.250549	0.000305176	
5.98999	-0.244141	0	
5.99274	-0.237122	0.000457764	
5.99396	-0.230103	0.000305176	
5.99487	-0.222168	-0.000152588	
5.99365	-0.21637	-0.000457764	
5.99518	-0.209961	-0.000152588	
5.99426	-0.203247	0	
5.99426	-0.195923	0	
5.99426	-0.188293	0.000152588	
5.99731	-0.18158	-0.000152588	
5.99945	-0.175781	0.000305176	
5.99915	-0.168762	0.0012207	
5.99915	-0.161133	0.00106812	
5.99915	-0.154114	0.000305176	
5.99976	-0.1474	0.000762939	
5.99945	-0.140381	0.000457764	
5.99915	-0.132446	0.000305176	
5.99945	-0.124512	0.000610352	
6.0025	-0.117798	0.000610352	
6.00372	-0.112305	0	
6.00433	-0.10498	0.000305176	
6.00403	-0.0973511	0.000152588	
6.00403	-0.090332	0.000610352	
6.00403	-0.0836182	0.000457764	
6.00403	-0.0756836	0.00137329	
6.00464	-0.0683594	0.000610352	
6.00769	-0.0616455	0.000610352	
6.00891	-0.0540161	0.000610352	
6.00922	-0.0463867	0.000457764	
6.00922	-0.0387573	0.00106812	
6.00861	-0.0311279	0.000457764	
6.00891	-0.0222778	-0.000305176	
6.00922	-0.0146484	-0.000610352	
6.00952	-0.00701904	0	
6.01227	0.000305176	0.000457764	
