model_ppg1.acq
0.5 msec/sample
3 channels
RSP, X, RSPEC-R
Volts
PPG, X, PPGED-R
Volts
ECG, Y, RSPEC-R
mV
CH1	CH2	CH13	
245681	245681	245681	
5.69336	-0.0354004	0.000457764	
5.69427	-0.0354004	0.000457764	
5.69397	-0.038147	0.000762939	
5.69427	-0.039978	0.000915527	
5.69336	-0.0408936	0	
5.69336	-0.0411987	0.000915527	
5.69427	-0.0405884	0.00106812	
5.69458	-0.0405884	0.000457764	
5.69366	-0.0405884	0.000610352	
5.69397	-0.039978	0.000610352	
5.69336	-0.0402832	-0.000305176	
5.69336	-0.0405884	-0.000305176	
5.69366	-0.0408936	0	
5.69366	-0.0405884	0.000610352	
5.69061	-0.0436401	-0.000915527	
5.68939	-0.0454712	0.000305176	
5.68848	-0.0460815	0.000610352	
5.68878	-0.0454712	0.000305176	
5.68939	-0.0457764	0.000610352	
5.68909	-0.0448608	0.000152588	
5.68909	-0.045166	0.000457764	
5.68939	-0.0460815	0.000762939	
5.68878	-0.0457764	0.000152588	
5.68909	-0.045166	0.000305176	
5.68878	-0.0454712	-0.000762939	
5.68878	-0.0460815	0.000457764	
5.68909	-0.0457764	0.000457764	
5.68878	-0.0454712	-0.000152588	
5.68939	-0.0485229	0.000610352	
5.68939	-0.050354	0	
5.68909	-0.0494385	0.000915527	
5.68909	-0.050354	0.00152588	
5.68939	-0.0500488	0.000915527	
5.68878	-0.0500488	0.000457764	
5.68939	-0.0506592	0.000152588	
5.68909	-0.0506592	0.00106812	
5.68878	-0.0500488	0.0012207	
5.68909	-0.0509644	0.000457764	
5.68909	-0.050354	-0.000152588	
5.68878	-0.050354	0.000610352	
5.68848	-0.0506592	0.000457764	
5.68878	-0.050354	0.000305176	
5.68878	-0.0524902	0.000610352	
5.68909	-0.0552368	0.00106812	
5.68848	-0.055542	-0.000152588	
5.68909	-0.0558472	0.000915527	
5.68878	-0.055542	0.0012207	
5.68909	-0.055542	0.000915527	
5.68848	-0.0552368	0.000610352	
5.68573	-0.0549316	0.000762939	
5.68359	-0.0558472	-0.000152588	
5.68451	-0.0558472	-0.000762939	
5.68451	-0.055542	0	
5.6842	-0.0552368	0.000152588	
5.6842	-0.055542	-0.000762939	
5.6842	-0.0552368	0.000457764	
5.68359	-0.0582886	0.000762939	
5.6842	-0.0601196	0.000610352	
5.6842	-0.06073	0.000457764	
5.68329	-0.0598145	-0.000152588	
5.6842	-0.0604248	0.000152588	
5.68451	-0.06073	0.000457764	
5.68359	-0.0601196	0	
5.6842	-0.0604248	-0.000152588	
5.6839	-0.0604248	-0.000762939	
5.6842	-0.0604248	0	
5.68359	-0.0610352	0.000305176	
5.68359	-0.06073	0.000457764	
5.6839	-0.0604248	0.000152588	
5.68359	-0.0598145	0.000762939	
5.68329	-0.0598145	0.00106812	
5.6839	-0.0601196	0.0012207	
5.6842	-0.062561	0.000915527	
5.68359	-0.0646973	0.000762939	
5.6839	-0.0653076	0.000152588	
5.6839	-0.0650024	0.0012207	
5.6842	-0.0653076	0.000610352	
5.68329	-0.0656128	0.000305176	
5.6839	-0.0653076	0	
5.68359	-0.0650024	0.000305176	
5.6839	-0.0650024	0.000152588	
5.6839	-0.0653076	0.000457764	
5.6839	-0.0650024	0.000610352	
5.6842	-0.0650024	0.0012207	
5.68359	-0.0650024	0	
5.6839	-0.0653076	0.00152588	
5.6839	-0.0653076	0.000305176	
5.6842	-0.0653076	0.000915527	
5.68359	-0.0650024	0.000457764	
5.68329	-0.0683594	0.000762939	
5.68146	-0.0695801	-0.000305176	
5.67902	-0.0698853	-0.000610352	
5.67902	-0.0695801	0	
5.67902	-0.0695801	0.000762939	
5.67871	-0.0701904	-0.000762939	
5.67871	-0.0695801	0.0012207	
5.67932	-0.0698853	0.000305176	
5.67902	-0.0698853	0.000305176	
5.67902	-0.0704956	0.000152588	
5.67932	-0.0695801	0.000305176	
5.67902	-0.0698853	0.000305176	
5.67963	-0.0704956	0.000305176	
5.67902	-0.0701904	0	
5.67902	-0.0704956	0.000152588	
5.67902	-0.0704956	-0.000762939	
5.67932	-0.0704956	0.000762939	
5.67902	-0.0726318	0.000305176	
5.67963	-0.0744629	-0.000152588	
5.67871	-0.0747681	0.000152588	
5.67902	-0.0747681	0	
5.67841	-0.0750732	0.00106812	
5.67902	-0.0753784	0.00152588	
5.67932	-0.0756836	0.000152588	
5.67902	-0.0750732	0.00106812	
5.67902	-0.0747681	-0.000152588	
5.67932	-0.0753784	0.00137329	
5.67963	-0.0750732	0.000762939	
5.67932	-0.0744629	0.000457764	
5.67871	-0.0750732	0.000305176	
5.67932	-0.0753784	0.000610352	
5.67841	-0.0741577	0.000305176	
5.67963	-0.0750732	0.000457764	
5.67932	-0.0747681	0.000152588	
5.67902	-0.0747681	0.0012207	
5.67902	-0.078125	-0.000152588	
5.67902	-0.0790405	0.00137329	
5.67871	-0.0787354	0.000610352	
5.67871	-0.0796509	0.000457764	
5.67902	-0.0799561	0.000762939	
5.67902	-0.0799561	0.000762939	
5.67871	-0.0793457	-0.000152588	
5.67871	-0.0799561	-0.000610352	
5.67902	-0.0796509	-0.000305176	
5.67932	-0.0802612	0.000457764	
5.67902	-0.0793457	-0.000457764	
5.67902	-0.0796509	0.000915527	
5.67932	-0.0796509	0	
5.67871	-0.0796509	0.000305176	
5.67841	-0.0793457	0.000457764	
5.67963	-0.0796509	0.000152588	
5.67932	-0.0802612	0.000305176	
5.67871	-0.0799561	0.000457764	
5.67871	-0.0793457	0.000152588	
5.67841	-0.0823975	0.000457764	
5.67902	-0.0848389	-0.00106812	
5.67932	-0.0842285	0.000762939	
5.67932	-0.0848389	0.000305176	
5.67871	-0.0842285	0.000152588	
5.67902	-0.0848389	0.000305176	
5.67932	-0.0842285	0.000457764	
5.67932	-0.0842285	0.00106812	
5.67871	-0.0839233	0.00137329	
5.67963	-0.0848389	0.000305176	
5.67841	-0.0848389	0.000762939	
5.67566	-0.0845337	0.000152588	
5.67474	-0.0848389	0.00167847	
5.67383	-0.085144	0.000457764	
5.67444	-0.085144	0.000305176	
5.67444	-0.0845337	0.000457764	
5.67413	-0.0845337	0.000305176	
5.67383	-0.0845337	0.000457764	
5.67383	-0.0848389	0.000305176	
5.67413	-0.0848389	0	
5.67413	-0.0875854	0.00106812	
5.67413	-0.0894165	0.000152588	
5.67413	-0.0900269	0.00137329	
5.67413	-0.0894165	0.000305176	
5.67383	-0.0897217	0.000762939	
5.67413	-0.090332	0.000457764	
5.67444	-0.0900269	0.000762939	
5.67383	-0.0894165	-0.000305176	
5.67383	-0.0894165	-0.000152588	
5.67352	-0.0894165	-0.000152588	
5.67444	-0.0897217	0.000915527	
5.67444	-0.0900269	-0.000610352	
5.67383	-0.0894165	0.000457764	
5.67474	-0.0900269	0.000457764	
5.67444	-0.0894165	0.000457764	
5.67444	-0.0897217	0.000457764	
5.67444	-0.0897217	0.000305176	
5.67383	-0.0897217	0.000457764	
5.67444	-0.0894165	0.000305176	
5.67413	-0.0897217	-0.000152588	
5.67352	-0.0897217	0.000305176	
5.67383	-0.0921631	-0.0012207	
5.67413	-0.0942993	0.000915527	
5.67474	-0.0942993	0.000152588	
5.67413	-0.0942993	0.000305176	
5.67413	-0.0949097	0.000305176	
5.67413	-0.0946045	0.000152588	
5.67505	-0.0942993	0.00106812	
5.67474	-0.0949097	0.00152588	
5.67444	-0.0946045	0.000457764	
5.67383	-0.0946045	0.000915527	
5.67413	-0.0942993	0.000152588	
5.67474	-0.0946045	0.00137329	
5.67383	-0.0946045	0.000305176	
5.67444	-0.0949097	0.000457764	
5.67413	-0.0939941	0.000610352	
5.67444	-0.0942993	0.000762939	
5.67413	-0.0946045	0.000457764	
5.67413	-0.0942993	0.000152588	
5.67413	-0.0949097	0	
5.67383	-0.0949097	0.0012207	
5.67444	-0.0949097	0	
5.67413	-0.0942993	0.00106812	
5.67413	-0.0949097	0.000762939	
5.67383	-0.0970459	0.000457764	
5.67413	-0.0991821	0.00106812	
5.67505	-0.0994873	0.000457764	
5.67444	-0.0991821	-0.000152588	
5.67413	-0.0994873	-0.000610352	
5.67383	-0.0997925	-0.000305176	
5.67413	-0.0991821	0.000305176	
5.67383	-0.0994873	-0.000305176	
5.67444	-0.0997925	0.000915527	
5.67383	-0.0997925	0.000152588	
5.67413	-0.0994873	0.000152588	
5.67352	-0.0994873	0.000305176	
5.67474	-0.0991821	0.000305176	
5.67474	-0.0985718	0.000610352	
5.67413	-0.0997925	0.000305176	
5.67383	-0.100403	0	
5.67413	-0.0994873	0.000305176	
5.67383	-0.0994873	-0.00106812	
5.67413	-0.098877	0.000915527	
5.67413	-0.0991821	0.000610352	
5.67413	-0.100098	0.000305176	
5.67383	-0.0997925	0.000305176	
5.67444	-0.0991821	0.000305176	
5.67444	-0.102539	0.00152588	
5.67444	-0.104065	0.00152588	
5.67444	-0.104675	0.000152588	
5.67444	-0.10498	0.0012207	
5.67413	-0.104675	0.000305176	
5.67505	-0.10437	0.0012207	
5.67444	-0.10437	0.000762939	
5.67474	-0.10437	0.000305176	
5.67413	-0.10376	0.000152588	
5.67413	-0.104065	0.000152588	
5.67383	-0.104675	0.000457764	
5.67413	-0.10437	0.000305176	
5.67383	-0.104675	0.000152588	
5.67383	-0.10437	0.0012207	
5.67383	-0.104065	0	
5.67413	-0.104065	0.0012207	
5.67444	-0.104675	0.000762939	
5.67474	-0.104065	0.000610352	
5.67352	-0.104675	0.000457764	
5.67413	-0.10376	0.000610352	
5.67352	-0.10437	-0.000305176	
5.67352	-0.10437	-0.000915527	
5.67383	-0.10498	-0.000457764	
5.67413	-0.10376	0.000457764	
5.67413	-0.10437	-0.000457764	
5.67383	-0.107422	0.000762939	
5.67444	-0.109558	0	
5.67444	-0.109863	0.000457764	
5.67474	-0.109253	0.000915527	
5.67383	-0.109863	0.000152588	
5.67413	-0.109558	0.000610352	
5.67352	-0.109863	0.000610352	
5.67413	-0.109253	-0.000305176	
5.67444	-0.108948	0.000610352	
5.67383	-0.109253	-0.000762939	
5.67383	-0.109253	0.000762939	
5.67444	-0.109863	0.000305176	
5.67413	-0.109253	0.000457764	
5.67444	-0.109253	0	
5.67444	-0.109558	0.000305176	
5.67413	-0.109558	0.00152588	
5.67444	-0.108948	0.00137329	
5.67413	-0.109253	0	
5.67413	-0.109558	0.000915527	
5.67413	-0.110168	-0.000152588	
5.67444	-0.109253	0.00106812	
5.67413	-0.108643	0.000457764	
5.67474	-0.109863	0.000152588	
5.67444	-0.109253	0.000305176	
5.67413	-0.109253	0.000610352	
5.67413	-0.109558	0.000762939	
5.67413	-0.109863	0.000152588	
5.67413	-0.109558	0.000305176	
5.67444	-0.111694	0.00106812	
5.67413	-0.114136	0.000152588	
5.67444	-0.113831	0.00137329	
5.67413	-0.114136	0.000610352	
5.67413	-0.113831	0.000610352	
5.67413	-0.114136	0.000762939	
5.67474	-0.114136	0.000305176	
5.67444	-0.114441	-0.000305176	
5.67413	-0.114136	-0.000610352	
5.67383	-0.114441	0	
5.67413	-0.113831	0.000762939	
5.67474	-0.114441	-0.00106812	
5.67383	-0.114746	0.00106812	
5.67444	-0.113525	0.000305176	
5.67413	-0.115051	0.000305176	
5.67444	-0.114136	0.000762939	
5.67444	-0.114136	0.000152588	
5.67413	-0.114441	0.000305176	
5.67474	-0.114441	0.000305176	
5.67444	-0.114136	-0.000305176	
5.67413	-0.113831	0.000457764	
5.67413	-0.113831	-0.00106812	
5.67413	-0.113831	0.000915527	
5.67383	-0.113831	0.000762939	
5.67413	-0.114441	0.000457764	
5.67383	-0.114441	0	
5.67413	-0.114441	0.000305176	
5.67383	-0.114136	0.00106812	
5.67413	-0.114136	0.0012207	
5.67444	-0.114746	0.000152588	
5.67444	-0.114136	0.000610352	
5.67413	-0.114441	0.000152588	
5.67413	-0.113831	0.00167847	
5.67413	-0.114441	0.000457764	
5.67352	-0.114136	0.000152588	
5.67413	-0.113831	0.000305176	
5.67413	-0.113831	0.000610352	
5.67383	-0.114136	0.000762939	
5.67413	-0.114746	0.000152588	
5.67444	-0.114746	0.000152588	
5.67474	-0.116272	0.00137329	
5.67413	-0.118713	0	
5.67413	-0.119019	0.00106812	
5.67413	-0.118713	0.000457764	
5.67444	-0.119629	0.000915527	
5.67383	-0.119324	0.000762939	
5.67383	-0.119019	0.000610352	
5.67383	-0.119324	-0.000457764	
5.67413	-0.119324	-0.000762939	
5.67322	-0.119629	-0.000152588	
5.67413	-0.119629	0.000915527	
5.67413	-0.118713	-0.000610352	
5.67474	-0.119019	0.000762939	
5.67444	-0.119019	0	
5.67383	-0.119629	0.000457764	
5.67444	-0.118713	0.000152588	
5.67413	-0.118713	0.000152588	
5.67413	-0.119019	0.000305176	
5.67413	-0.118713	0.000152588	
5.67444	-0.118713	-0.000152588	
5.67688	-0.119019	0.000152588	
5.6778	-0.119324	-0.000762939	
5.67932	-0.119019	0.000762939	
5.67963	-0.118713	0.000305176	
5.67902	-0.119019	0	
5.67902	-0.118713	0.000152588	
5.67902	-0.119019	0.000762939	
5.67841	-0.119019	0.0012207	
5.67902	-0.119629	0.00137329	
5.67871	-0.119019	0.000305176	
5.67932	-0.119019	0.0012207	
5.67932	-0.119019	0	
5.67902	-0.119324	0.0012207	
5.67932	-0.119019	0.000762939	
5.67902	-0.119324	0.000610352	
5.67871	-0.118713	0.000457764	
5.67902	-0.119019	0.000610352	
5.67932	-0.119019	0.000305176	
5.67871	-0.119629	0.000457764	
5.67871	-0.119019	0	
5.67902	-0.119324	0.00106812	
5.67963	-0.119019	0.000152588	
5.67902	-0.119324	0.00167847	
5.67902	-0.118713	0.000610352	
5.67932	-0.119019	0.000457764	
5.67963	-0.119324	0.000610352	
5.67932	-0.119324	0.000610352	
5.67841	-0.118713	-0.000305176	
5.67902	-0.119019	-0.000610352	
5.67932	-0.119324	-0.000610352	
5.6781	-0.119019	0.000762939	
5.67902	-0.119629	-0.000915527	
5.67871	-0.119019	0.000915527	
5.67902	-0.119324	0.000152588	
5.67902	-0.119019	0.000610352	
5.67871	-0.119324	0.000457764	
5.67902	-0.119629	0.000152588	
5.67902	-0.119629	0.000305176	
5.67963	-0.119019	0.000305176	
5.67932	-0.118713	-0.000152588	
5.67932	-0.118713	0.000610352	
5.67963	-0.119324	-0.00106812	
5.67902	-0.119934	0.000762939	
5.67871	-0.121765	0	
5.67932	-0.123596	0.000152588	
5.67871	-0.124207	0.000457764	
5.67871	-0.124207	0.000152588	
5.67841	-0.123901	0.00152588	
5.67902	-0.123901	0.00137329	
5.67902	-0.124512	0.000305176	
5.67841	-0.125122	0.000915527	
5.67932	-0.124207	0.000152588	
5.67932	-0.123901	0.0012207	
5.67993	-0.123901	0.000915527	
5.67932	-0.124207	0.000457764	
5.67902	-0.123901	0.000457764	
5.67932	-0.124207	0.000762939	
5.67932	-0.123901	0.000610352	
5.67902	-0.123901	0.000457764	
5.67902	-0.124207	0.000152588	
5.67902	-0.124207	0.0012207	
5.67932	-0.123901	-0.000610352	
5.67871	-0.123596	0.00137329	
5.67963	-0.124207	0.000610352	
5.67902	-0.124207	0.000762939	
5.67932	-0.123901	0.000915527	
5.67871	-0.124207	0.000457764	
5.67871	-0.124512	-0.000610352	
5.67871	-0.123596	-0.000610352	
5.67993	-0.123901	-0.000152588	
5.67871	-0.124207	0.000610352	
5.67932	-0.123901	-0.000762939	
5.67932	-0.123596	0.000915527	
5.67932	-0.124207	0.000305176	
5.67871	-0.12085	0.000762939	
5.67871	-0.119629	0.000305176	
5.67902	-0.119019	0.000152588	
5.67841	-0.119324	0.000762939	
5.67902	-0.119629	0.000610352	
5.6781	-0.118713	-0.000152588	
5.67902	-0.119019	0.000457764	
5.67932	-0.119629	-0.00106812	
5.67871	-0.119019	0.000915527	
5.67932	-0.119629	0.000152588	
5.67871	-0.118713	0.000152588	
5.67932	-0.119019	0.000457764	
5.67902	-0.119629	0.000152588	
5.67932	-0.119629	0.00152588	
5.67902	-0.119019	0.0012207	
5.67871	-0.118713	0.000457764	
5.67932	-0.119019	0.000762939	
5.67902	-0.119324	0	
5.67902	-0.119629	0.0012207	
5.67902	-0.118713	0.000305176	
5.67902	-0.118713	0	
5.67963	-0.119934	0.000152588	
5.67902	-0.119324	0.000305176	
5.67871	-0.118713	0.000457764	
5.67902	-0.119019	0.000457764	
5.67871	-0.116272	0.000457764	
5.67902	-0.115051	0.00152588	
5.67902	-0.114136	-0.000152588	
5.67932	-0.113831	0.00137329	
5.67841	-0.114441	0.000762939	
5.67932	-0.114136	0.000610352	
5.67871	-0.114746	0.000762939	
5.67566	-0.114136	0.000457764	
5.67413	-0.113831	-0.000152588	
5.67413	-0.113831	-0.000457764	
5.67413	-0.114136	0	
5.67413	-0.114441	0.000305176	
5.67413	-0.114136	-0.000762939	
5.67413	-0.110779	0.0012207	
5.67413	-0.109558	0.000457764	
5.67383	-0.108643	0.000457764	
5.67413	-0.108643	0.000610352	
5.67383	-0.108643	0.000305176	
5.67444	-0.108337	0.000457764	
5.67413	-0.108948	0.000915527	
5.67413	-0.108948	0.000152588	
5.67383	-0.109253	0.000305176	
5.67444	-0.106506	-0.00137329	
5.67444	-0.104675	0.000610352	
5.67474	-0.104675	0.000152588	
5.67413	-0.10437	0.000305176	
5.67444	-0.10437	0	
5.67413	-0.104675	0.000305176	
5.67413	-0.104065	0.00137329	
5.67444	-0.101624	0.0012207	
5.67444	-0.0997925	0.000457764	
5.67383	-0.0991821	0.000762939	
5.67383	-0.100098	0	
5.67413	-0.0991821	0.0012207	
5.67383	-0.0994873	0.000305176	
5.67383	-0.0967407	0.000457764	
5.67413	-0.09552	0.000152588	
5.67383	-0.0942993	0.000305176	
5.67383	-0.0942993	0.000457764	
5.67413	-0.0942993	0.000457764	
5.67444	-0.0949097	0.000305176	
5.67444	-0.0912476	0.00137329	
5.67444	-0.0897217	0	
5.67444	-0.0897217	0.00152588	
5.67444	-0.0897217	0.000610352	
5.67444	-0.0894165	0.000610352	
5.67383	-0.0866699	0.000915527	
5.67474	-0.0845337	0.000610352	
5.67444	-0.0845337	-0.000305176	
5.67383	-0.0845337	-0.000305176	
5.67444	-0.0845337	-0.000305176	
5.67413	-0.0820923	0.000610352	
5.67413	-0.0802612	-0.000915527	
5.67474	-0.0790405	0.000457764	
5.67444	-0.0805664	0	
5.67444	-0.0769043	0.000305176	
5.67413	-0.0753784	0.000457764	
5.67413	-0.0747681	0.000305176	
5.67413	-0.0747681	0.000305176	
5.67413	-0.0723267	0.000610352	
5.67383	-0.071106	0	
5.67413	-0.0698853	0.000610352	
5.67413	-0.0701904	-0.000915527	
5.67413	-0.0671387	0.000457764	
5.67413	-0.0656128	0.000152588	
5.67383	-0.0646973	0.000305176	
5.67413	-0.0646973	0.000152588	
5.67078	-0.0628662	0.000305176	
5.66925	-0.0604248	0.00106812	
5.66895	-0.0601196	0.00152588	
5.66956	-0.057373	0.000610352	
5.66925	-0.0558472	0.000915527	
5.66956	-0.0552368	0	
5.66956	-0.0558472	0.00137329	
5.66925	-0.0524902	0.000457764	
5.66895	-0.0509644	0.000610352	
5.66925	-0.050354	0.000305176	
5.66895	-0.0476074	0.000457764	
5.66925	-0.0457764	0.000610352	
5.66956	-0.0457764	0.000305176	
5.66956	-0.0424194	0.000152588	
5.66986	-0.0408936	0.00152588	
5.66925	-0.039978	0	
5.66956	-0.0375366	0.0012207	
5.66895	-0.0363159	0.000610352	
5.66925	-0.0354004	0.000457764	
5.66864	-0.0332642	0.000610352	
5.66956	-0.0311279	0.000305176	
5.66925	-0.0308228	-0.000457764	
5.66925	-0.0280762	-0.000915527	
5.66895	-0.0256348	-0.000610352	
5.66925	-0.0262451	0.000152588	
5.66986	-0.0228882	-0.000457764	
5.66895	-0.0216675	0.000915527	
5.66956	-0.0210571	0.000305176	
5.66925	-0.0183105	0.000152588	
5.66864	-0.0158691	0.000305176	
5.66925	-0.0134277	0.000305176	
5.66895	-0.0115967	0.000305176	
5.6662	-0.0109863	0.000305176	
5.66406	-0.00854492	-0.000610352	
5.66437	-0.00610352	0.000305176	
5.66467	-0.00610352	-0.000610352	
5.66406	-0.00366211	0.000915527	
5.66437	-0.00152588	0.000305176	
5.66467	0.000915527	0.000305176	
5.66437	0.00274658	0	
5.66406	0.00305176	0.000457764	
5.66406	0.00640869	0.0012207	
5.66498	0.00823975	0.00152588	
5.66437	0.0112915	0	
5.66467	0.0131226	0.00152588	
5.66437	0.0134277	-0.000457764	
5.66467	0.0161743	0.00137329	
5.66467	0.0183105	0.000152588	
5.66315	0.0213623	0.000610352	
5.66406	0.022583	0.000305176	
5.66376	0.0259399	0.000610352	
5.66406	0.0268555	0.000457764	
5.66467	0.0274658	0.000305176	
5.66437	0.0305176	0.000457764	
5.66467	0.0326538	0.00152588	
5.66467	0.0354004	0	
5.66162	0.0375366	0.00167847	
5.65918	0.0405884	0.000762939	
5.65918	0.0424194	0.000762939	
5.65918	0.0457764	0.000457764	
5.65979	0.0479126	0.000457764	
5.65918	0.0479126	-0.000305176	
5.65918	0.0506592	-0.000457764	
5.6601	0.0527954	-0.000152588	
5.65979	0.0552368	0.000610352	
5.65918	0.0570679	-0.000915527	
5.65918	0.0601196	0.000762939	
5.65948	0.062561	0.000457764	
5.65979	0.0653076	0.000152588	
5.65948	0.0665283	0.000457764	
5.65857	0.0698853	0.000457764	
5.6601	0.0717163	0.000152588	
5.65948	0.0723267	0.000305176	
5.65887	0.0753784	-0.000152588	
5.65948	0.0759888	0.000305176	
5.65979	0.0802612	-0.000915527	
5.65918	0.0814819	0.000915527	
5.65674	0.0845337	-0.000152588	
5.6543	0.0857544	0.000152588	
5.6543	0.0888062	0	
5.6546	0.0909424	0.000610352	
5.6543	0.0939941	0.0012207	
5.65491	0.0958252	0.00152588	
5.65491	0.0979614	0.000457764	
5.65491	0.100403	0.0012207	
5.6543	0.10376	-0.000152588	
5.6543	0.105896	0.00137329	
5.6546	0.108948	0.000610352	
5.65491	0.110779	0.000305176	
5.65491	0.113831	-0.000152588	
5.6543	0.115662	0.000610352	
5.65491	0.118408	0.000610352	
5.65521	0.119934	0.000457764	
5.65521	0.12146	0.000152588	
5.6546	0.123596	0.00167847	
5.65155	0.125122	-0.000152588	
5.65002	0.128784	0.0012207	
5.64941	0.1297	0.000762939	
5.64941	0.133057	0.000610352	
5.64941	0.135193	0.000762939	
5.64941	0.137634	0.000305176	
5.64972	0.140076	-0.000457764	
5.64972	0.143127	-0.000457764	
5.64941	0.144958	-0.000457764	
5.64911	0.148621	0.000610352	
5.64941	0.149841	-0.000610352	
5.64911	0.152588	0.000915527	
5.64941	0.154419	0	
5.64972	0.15686	0	
5.64941	0.158997	0.000610352	
5.64972	0.162048	0.000152588	
5.64911	0.16449	0.000305176	
5.64606	0.167236	0.000457764	
5.64453	0.168762	-0.000152588	
5.64453	0.172119	0.000152588	
5.64392	0.174255	-0.00106812	
5.64423	0.177307	0.00106812	
5.64484	0.179138	0.000305176	
5.64453	0.18158	0.000305176	
5.64484	0.1828	0.000152588	
5.64453	0.187378	0.000762939	
5.64484	0.188904	0.0012207	
5.64484	0.192261	0.00137329	
5.64514	0.194397	0.000305176	
5.64362	0.197144	0.00137329	
5.64392	0.198669	-0.000152588	
5.64484	0.201721	0.00167847	
5.64423	0.203857	0.000457764	
5.64178	0.203857	0.000152588	
5.64056	0.206909	0.000457764	
5.64026	0.208435	0.000457764	
5.63904	0.211487	0.000457764	
5.63965	0.212708	0.000305176	
5.63934	0.216675	0.000152588	
5.63965	0.217896	0.00152588	
5.63965	0.221252	0	
5.63995	0.222778	0.00137329	
5.63934	0.226746	0.000762939	
5.63965	0.228577	0.000762939	
5.63965	0.231323	0.000762939	
5.63995	0.233154	0.000305176	
5.63934	0.236511	-0.000305176	
5.6366	0.237732	-0.000305176	
5.63507	0.238037	0	
5.63416	0.240479	-0.000305176	
5.63507	0.242615	0.00106812	
5.63507	0.245361	0.000305176	
5.63477	0.250854	0.000457764	
5.63507	0.252075	0.000457764	
5.63477	0.255737	0.000610352	
5.63507	0.257568	0.000457764	
5.63416	0.257568	0.000305176	
5.63446	0.260925	0.000610352	
5.63507	0.262146	0	
5.63416	0.264587	-0.00106812	
5.63416	0.267029	0.000762939	
5.63171	0.270691	0.000152588	
5.63019	0.271912	0.000305176	
5.62988	0.272522	0.000152588	
5.62988	0.275269	0.000152588	
5.63019	0.27771	0.000305176	
5.63049	0.280151	0.0012207	
5.62958	0.282593	0.00137329	
5.62927	0.282288	0.000152588	
5.62927	0.285645	0.000457764	
5.63049	0.28717	0.00137329	
5.62988	0.289612	0.000457764	
5.62897	0.292358	0.000457764	
5.62958	0.291138	0.000457764	
5.63049	0.294189	0.000457764	
5.62683	0.296326	0.000610352	
5.625	0.299988	0.000457764	
5.62469	0.301208	0.000305176	
5.625	0.301514	0	
5.62408	0.305481	0.000610352	
5.625	0.306702	0.00152588	
5.625	0.307007	0.000915527	
5.62408	0.310059	0.000610352	
5.62469	0.311584	0.000610352	
5.625	0.314331	0.000762939	
5.62378	0.316162	0.000152588	
5.625	0.316467	-0.000457764	
5.62408	0.318909	-0.000915527	
5.62195	0.320129	-0.000152588	
5.62012	0.321045	-0.000152588	
5.61951	0.323792	0.000762939	
5.6192	0.325623	0	
5.6189	0.326843	0.000152588	
5.62042	0.329285	0.000305176	
5.62012	0.331421	0.000457764	
5.6192	0.331116	0.000305176	
5.61981	0.334473	0.000762939	
5.61951	0.335388	0.000305176	
5.61951	0.335693	-0.000152588	
5.62012	0.336304	-0.000457764	
5.61951	0.338745	0.000915527	
5.61707	0.340271	0.000152588	
5.61554	0.340881	0.000305176	
5.61493	0.343628	0.000152588	
5.61462	0.345764	0	
5.61432	0.345764	0.000152588	
5.61493	0.348511	0.0012207	
5.61462	0.350037	0.00137329	
5.61523	0.350647	0.000152588	
5.61523	0.351563	0	
5.61554	0.353699	0.00152588	
5.61462	0.355835	0.000915527	
5.61523	0.355835	0.000152588	
5.61462	0.355835	0.000305176	
5.61188	0.358276	0.000152588	
5.61005	0.360413	0.000762939	
5.60974	0.361328	0.000305176	
5.61035	0.360413	0	
5.60974	0.36377	0.000152588	
5.61035	0.365295	0.000762939	
5.61066	0.366516	0.00137329	
5.61005	0.365295	0.000915527	
5.60974	0.368652	0.000152588	
5.60974	0.370483	0.000457764	
5.60944	0.371094	0.000610352	
5.60944	0.370483	0.000610352	
5.60699	0.372925	-0.000305176	
5.60547	0.375061	-0.000762939	
5.60425	0.375061	-0.000152588	
5.60547	0.375671	-0.000152588	
5.60516	0.375977	0.000762939	
5.60547	0.377808	0.000152588	
5.60455	0.380554	0.000457764	
5.60547	0.380859	0	
5.60516	0.381165	0.000915527	
5.60516	0.380249	0.000152588	
5.60486	0.38147	0.000610352	
5.60547	0.383606	0.000457764	
5.60242	0.385437	-0.000305176	
5.60059	0.385437	-0.000610352	
5.60028	0.385437	0.00106812	
5.60059	0.385437	0	
5.59998	0.388794	0.000305176	
5.59998	0.390625	0	
5.60028	0.389709	0.000305176	
5.60059	0.39093	0.000762939	
5.60059	0.389709	0.00137329	
5.60059	0.390625	0.00137329	
5.59967	0.389709	0.000305176	
5.60059	0.392456	0.000305176	
5.59723	0.393982	0.00152588	
5.59601	0.395508	0.000610352	
5.59509	0.395203	0.000610352	
5.5957	0.394897	0.000305176	
5.5954	0.394897	0.000152588	
5.59601	0.394897	0.000610352	
5.5954	0.395508	0.000152588	
5.59509	0.397644	0.000610352	
5.59509	0.39917	0.000152588	
5.59448	0.39978	0.000457764	
5.59509	0.400391	0.00152588	
5.59479	0.39978	0.000610352	
5.59174	0.400391	0.000762939	
5.59082	0.39978	0.000762939	
5.59021	0.400085	0.000305176	
5.5899	0.400085	0.000457764	
5.5899	0.39978	-0.000305176	
5.5899	0.402222	-0.000610352	
5.59021	0.404053	-0.000457764	
5.59052	0.404968	-0.000152588	
5.59021	0.404358	0.000762939	
5.5899	0.404663	0.000305176	
5.59021	0.404663	0.000457764	
5.58746	0.405273	0.000457764	
5.58594	0.404968	0.000305176	
5.58502	0.405579	0	
5.58502	0.405273	0.000457764	
5.58502	0.404968	0.000152588	
5.58472	0.404358	-0.000305176	
5.58502	0.405579	-0.0012207	
5.58411	0.404663	0.000610352	
5.58563	0.404968	-0.000152588	
5.58533	0.404358	0.000152588	
5.58472	0.404968	0.000152588	
5.58472	0.408325	0.000305176	
5.58624	0.409851	0.000915527	
5.58197	0.409546	0.00106812	
5.58136	0.410461	0.000915527	
5.58014	0.410156	0.000762939	
5.58044	0.409546	-0.000152588	
5.58014	0.410156	0.00198364	
5.58044	0.410156	0.000915527	
5.57709	0.410156	0.000457764	
5.57617	0.409851	0.000610352	
5.57526	0.409851	-0.000152588	
5.57495	0.410156	0.000915527	
5.57617	0.409241	0.000152588	
5.57556	0.409851	0.000610352	
5.57556	0.410156	0.000457764	
5.57526	0.410156	0	
5.57495	0.409546	0.00137329	
5.57495	0.409546	0.000610352	
5.57526	0.409241	0.000915527	
5.57556	0.410156	0.000915527	
5.5722	0.409851	0.000152588	
5.57037	0.409546	0.000762939	
5.57068	0.409546	-0.000457764	
5.57007	0.40741	-0.000457764	
5.57098	0.405273	0	
5.57037	0.404663	-0.000457764	
5.57037	0.405273	0.000915527	
5.57007	0.404358	0.000457764	
5.57037	0.405579	0.000152588	
5.57037	0.404053	0.000305176	
5.57037	0.404663	0.000152588	
5.56702	0.404663	0.000457764	
5.56519	0.405273	0.000152588	
5.5658	0.404968	0	
5.56519	0.404663	0.000152588	
5.5661	0.404968	-0.00106812	
5.5661	0.405579	0.000457764	
5.56519	0.404968	0.000305176	
5.56549	0.404968	0.000305176	
5.5658	0.405579	0.000152588	
5.56519	0.401306	-0.000457764	
5.56549	0.400391	0.000915527	
5.56244	0.400391	0.00137329	
5.56	0.39917	0.00137329	
5.56061	0.400085	0.000915527	
5.5603	0.39978	-0.000305176	
5.5603	0.400696	0.00152588	
5.56061	0.400391	0.000610352	
5.5603	0.400085	0.000305176	
5.56	0.39978	0.000457764	
5.56	0.397034	-0.000152588	
5.5603	0.395508	0.000915527	
5.56	0.394592	0.000457764	
5.55695	0.394287	0.000457764	
5.55573	0.395203	0.000457764	
5.55573	0.395203	0.000152588	
5.55542	0.394897	0.00137329	
5.55542	0.395508	0.000457764	
5.55573	0.392761	0.000610352	
5.55511	0.390625	0.000762939	
5.55542	0.390015	0.000305176	
5.55542	0.39093	0.000152588	
5.55511	0.389404	-0.000457764	
5.55511	0.390625	-0.000457764	
5.55542	0.390625	0.000610352	
5.55481	0.387878	-0.000457764	
5.55511	0.386047	0.000610352	
5.55328	0.385437	0	
5.55054	0.385742	0	
5.55084	0.384827	0.000610352	
5.55023	0.385132	0.000305176	
5.55054	0.38269	0	
5.55054	0.380859	0.000305176	
5.55054	0.379944	0	
5.55023	0.380859	0.000762939	
5.55084	0.379944	-0.0012207	
5.55115	0.377808	0.000762939	
5.55023	0.375671	0.000457764	
5.54779	0.375671	0.000152588	
5.54596	0.375671	0.000152588	
5.54535	0.375671	0.000457764	
5.54596	0.37262	0.000152588	
5.54565	0.371704	0.00137329	
5.54596	0.370178	0.00106812	
5.54565	0.370789	0.000915527	
5.54596	0.369873	0.000305176	
5.54565	0.368347	0.00167847	
5.54535	0.365601	0.000762939	
5.54596	0.365906	0.000610352	
5.5426	0.365906	0.000305176	
5.54108	0.365295	0.000457764	
5.54077	0.363159	0.000762939	
5.54108	0.361328	0.000457764	
5.54108	0.359802	-0.000152588	
5.54108	0.360413	0.00106812	
5.54077	0.357666	0.000305176	
5.54047	0.355835	0.00167847	
5.54047	0.35614	0.000610352	
5.54108	0.355835	0.000915527	
5.54047	0.353394	0.000305176	
5.53772	0.351563	0.000610352	
5.53589	0.351563	0.000610352	
5.53589	0.350952	-0.000305176	
5.53589	0.348816	-0.000457764	
5.53558	0.34729	0.000762939	
5.53528	0.34668	-0.000305176	
5.53619	0.346069	0.000915527	
5.53589	0.343323	0.000305176	
5.53589	0.341187	0.000152588	
5.53558	0.340576	0.000305176	
5.5365	0.341187	0.000457764	
5.53284	0.33783	0	
5.53131	0.335999	0.000457764	
5.53101	0.335999	-0.000152588	
5.53223	0.335693	0.000305176	
5.53131	0.333557	-0.00106812	
5.5307	0.331726	0.000762939	
5.5307	0.331421	0	
5.53131	0.328369	0.000457764	
5.5307	0.326843	0.000457764	
5.5307	0.326233	0.000305176	
5.5307	0.326538	0.000610352	
5.52795	0.323486	0.00167847	
5.52582	0.322571	0.000610352	
5.52551	0.32074	0.00106812	
5.52551	0.318298	-0.000305176	
5.52612	0.317383	0.00137329	
5.52612	0.316162	0.000762939	
5.52673	0.316467	0.000457764	
5.52612	0.314026	0.000915527	
5.52582	0.312195	0.000457764	
5.52612	0.311584	0.000610352	
5.52551	0.309143	0.000305176	
5.52277	0.306702	0	
5.52155	0.306702	0.0012207	
5.52063	0.30426	0	
5.52124	0.302124	0.00167847	
5.52063	0.302124	0.000915527	
5.52124	0.302429	0.000762939	
5.52063	0.299683	0.000915527	
5.52124	0.297546	0.000457764	
5.52094	0.296936	0.000152588	
5.52063	0.294495	-0.000457764	
5.52124	0.292053	-0.000915527	
5.51758	0.291748	0.000762939	
5.51697	0.289001	-0.000610352	
5.51666	0.287476	0.000762939	
5.51636	0.287476	0.000610352	
5.51666	0.284729	0.000305176	
5.51605	0.283203	0.000457764	
5.51636	0.282593	0.000305176	
5.51666	0.279541	0.000305176	
5.51575	0.278015	0.000152588	
5.51605	0.277405	-0.000152588	
5.51575	0.274963	0.000457764	
5.51331	0.272827	-0.00106812	
5.5127	0.272827	0.000457764	
5.51117	0.270386	0.000457764	
5.51178	0.267334	0.000152588	
5.51147	0.267639	0.000305176	
5.51086	0.264587	0	
5.51117	0.262756	0.000457764	
5.51178	0.263062	0.00137329	
5.51147	0.259705	0.00106812	
5.51147	0.258179	0.000762939	
5.51117	0.257874	-0.000152588	
5.51147	0.254822	0.00167847	
5.51117	0.253601	0.000915527	
5.51086	0.252991	0.000762939	
5.51117	0.250244	0.000305176	
5.50842	0.248108	0.000610352	
5.5069	0.248108	0.000457764	
5.50629	0.245361	0.000457764	
5.50659	0.243225	0.000152588	
5.50629	0.24353	0.000915527	
5.50659	0.240173	0.000457764	
5.50659	0.238342	0.00152588	
5.50659	0.238037	0	
5.50629	0.235901	0.00137329	
5.50659	0.234375	0.000915527	
5.50629	0.233459	0.000762939	
5.50415	0.230408	0.000305176	
5.50171	0.228271	-0.000457764	
5.50079	0.228271	-0.000457764	
5.5014	0.22522	0.000305176	
5.50171	0.223694	-0.000762939	
5.50171	0.222473	0.000762939	
5.5014	0.221252	0	
5.50201	0.219116	0.00106812	
5.50171	0.218811	0.000610352	
5.5014	0.216064	0.000610352	
5.50171	0.214233	0.000152588	
5.49835	0.213928	0.000305176	
5.49652	0.211182	0.000457764	
5.49591	0.209045	0.000305176	
5.49652	0.208435	-0.00137329	
5.49652	0.205688	0.000305176	
5.49683	0.204468	0	
5.49622	0.203247	0.000610352	
5.49652	0.200806	0.000305176	
5.49683	0.19989	-0.000152588	
5.49652	0.196228	0.000762939	
5.49683	0.195313	0.00152588	
5.49347	0.194092	0.00106812	
5.49194	0.19165	0.000610352	
5.49133	0.189209	0.000305176	
5.49164	0.188599	0.00167847	
5.49225	0.186157	0.000152588	
5.49194	0.184326	0.000762939	
5.49164	0.184631	0.000457764	
5.49194	0.18158	0.000152588	
5.49194	0.180054	0.000610352	
5.49194	0.178833	0.000610352	
5.49164	0.176392	0.000610352	
5.48889	0.174866	0.000915527	
5.48706	0.174561	0.000152588	
5.48706	0.171814	0.00167847	
5.48645	0.169373	0.000305176	
5.48706	0.169067	0.0012207	
5.48645	0.166931	0.000762939	
5.48706	0.16571	0.000915527	
5.48676	0.164795	0.000762939	
5.48615	0.161743	-0.000305176	
5.48676	0.160217	-0.000457764	
5.48706	0.159607	0.000305176	
5.48676	0.157166	-0.000610352	
5.4837	0.154724	0.000762939	
5.48248	0.155029	-0.000152588	
5.48187	0.155029	0.000915527	
5.48187	0.152588	0.000305176	
5.48218	0.150757	0.000457764	
5.48157	0.149536	0.000457764	
5.48157	0.147095	0.000152588	
5.48157	0.145569	0.000457764	
5.48187	0.145264	0	
5.48218	0.141907	-0.000915527	
5.48187	0.140991	0.000762939	
5.47882	0.140991	-0.000152588	
5.47729	0.137634	0.000457764	
5.47699	0.135193	0.000152588	
5.47699	0.135498	0.000457764	
5.47638	0.132751	0.000457764	
5.47699	0.130615	0.00106812	
5.47638	0.130615	0.0012207	
5.47699	0.130005	0.000915527	
5.47638	0.128174	-0.000152588	
5.47607	0.126038	0.00152588	
5.47607	0.124817	0.000152588	
5.47333	0.122986	0.00106812	
5.47211	0.12146	0.000610352	
5.47211	0.120544	0.000457764	
5.4718	0.117798	0.000457764	
5.4718	0.115662	0.000457764	
5.47241	0.115662	0.000305176	
5.47241	0.115051	0.000610352	
5.4715	0.11322	0.000610352	
5.4715	0.111389	0.00152588	
5.4715	0.110779	0.000152588	
5.4715	0.108643	0.000762939	
5.46844	0.106201	0.000305176	
5.46722	0.105591	0.000762939	
5.46722	0.105591	0.000152588	
5.46722	0.103455	-0.000457764	
5.46692	0.100403	-0.000457764	
5.46692	0.101013	0.000152588	
5.46692	0.0976563	-0.000762939	
5.46753	0.0961304	0.00106812	
5.46753	0.0964355	-0.000305176	
5.46722	0.0964355	0.000915527	
5.46722	0.0933838	0.000305176	
5.46417	0.0915527	0.000305176	
5.46234	0.0909424	0	
5.46234	0.090332	0.000610352	
5.46204	0.088501	0.000152588	
5.46173	0.0869751	0.000152588	
5.46204	0.0863647	-0.00167847	
5.46204	0.0854492	0.000457764	
5.46143	0.0836182	-0.000152588	
5.46234	0.0820923	0.000152588	
5.46234	0.0811768	0.000457764	
5.46173	0.0811768	-0.000152588	
5.46234	0.0790405	0.000457764	
5.45929	0.0778198	0.00137329	
5.45746	0.0775146	0.00137329	
5.45685	0.0772095	0.000610352	
5.45654	0.0747681	0.000152588	
5.45624	0.0720215	0.0012207	
5.45654	0.0717163	0	
5.45715	0.0726318	0.000610352	
5.45685	0.0695801	0.000762939	
5.45776	0.067749	0.000152588	
5.45776	0.0668335	0.000915527	
5.45715	0.0665283	0.000457764	
5.45441	0.0674438	0.000457764	
5.45258	0.0643921	0.000762939	
5.45227	0.062561	0.000457764	
5.45258	0.062561	0.00183105	
5.45227	0.062561	0	
5.45258	0.0598145	0.00167847	
5.45258	0.0585938	0.000610352	
5.45258	0.0576782	0.000610352	
5.45197	0.057373	0.000610352	
5.45166	0.057373	-0.000305176	
5.45166	0.0549316	-0.000610352	
5.44922	0.0524902	0.000152588	
5.44739	0.0521851	-0.000915527	
5.44739	0.0524902	0.000915527	
5.44739	0.0527954	-0.000457764	
5.44739	0.0491333	0.000610352	
5.44708	0.0482178	0.000457764	
5.44708	0.0473022	0.000457764	
5.44769	0.0473022	0.000152588	
5.44708	0.0469971	0.000305176	
5.44739	0.0442505	0.000305176	
5.44739	0.0430298	0.000152588	
5.44464	0.0427246	-0.00137329	
5.4425	0.0427246	0.000915527	
5.4422	0.0427246	-0.000152588	
5.4425	0.0402832	0.000915527	
5.44281	0.0387573	0.000305176	
5.44128	0.0369263	0.000152588	
5.44281	0.038147	0.000610352	
5.4425	0.0378418	0.00137329	
5.4422	0.0375366	0.0012207	
5.4422	0.0350952	0.000457764	
5.4422	0.032959	-0.000152588	
5.43945	0.0326538	0.00183105	
5.43732	0.032959	0.000152588	
5.43762	0.0326538	0.000762939	
5.43701	0.0326538	0.000610352	
5.43793	0.0299072	0.000457764	
5.43762	0.0280762	0.000610352	
5.43762	0.0280762	0.000457764	
5.43762	0.0274658	0.000457764	
5.43701	0.027771	0.00106812	
5.43732	0.0280762	0.000457764	
5.43701	0.0253296	0.00137329	
5.43732	0.0231934	0.000152588	
5.43427	0.0231934	0.0012207	
5.43304	0.0231934	0.000915527	
5.43213	0.0231934	0.000915527	
5.43243	0.0228882	0.000457764	
5.43243	0.0231934	-0.000610352	
5.43243	0.0198364	-0.000305176	
5.43213	0.0186157	0	
5.43243	0.0180054	-0.000305176	
5.43182	0.0183105	0.000762939	
5.43304	0.0180054	0	
5.43213	0.0183105	0.000610352	
5.42847	0.0180054	0.000762939	
5.42755	0.0158691	0.000457764	
5.42786	0.0137329	0.000152588	
5.42725	0.0128174	0.000152588	
5.42847	0.0128174	0.000152588	
5.42786	0.0131226	0.000305176	
5.42786	0.0134277	-0.00106812	
5.42755	0.0131226	0.000762939	
5.42725	0.0128174	-0.000305176	
5.42725	0.0106812	0.000610352	
5.42786	0.0088501	0.000152588	
5.4248	0.00823975	0.000457764	
5.42297	0.00793457	0.000305176	
5.42267	0.00823975	0.00152588	
5.42267	0.00823975	0.00106812	
5.42267	0.00854492	0.000610352	
5.42297	0.00854492	-0.000152588	
5.42297	0.00823975	0.00137329	
5.42206	0.00518799	0.000305176	
5.42236	0.00396729	0.000915527	
5.42267	0.00335693	0.000457764	
5.42267	0.00396729	0.000457764	
5.41992	0.00366211	0.000305176	
5.41779	0.00335693	0.000457764	
5.41809	0.00366211	0.000305176	
5.41748	0.00335693	0.000915527	
5.41809	0.00305176	0.000610352	
5.41809	0.000610352	0.00106812	
5.41809	-0.000915527	0.000152588	
5.41809	-0.0012207	0.0012207	
5.41748	-0.000610352	0.000457764	
5.41748	-0.0012207	0.000762939	
5.41718	-0.00152588	0.000152588	
5.41412	-0.0012207	-0.000762939	
5.4126	-0.00213623	-0.000305176	
5.41229	-0.0012207	0.000305176	
5.4129	-0.0012207	-0.000762939	
5.4126	-0.0012207	0.000762939	
5.41229	-0.00427246	-0.000305176	
5.41229	-0.00549316	0.000762939	
5.4129	-0.00579834	0.000152588	
5.4129	-0.00610352	0.000457764	
5.41321	-0.00610352	0.000152588	
5.41199	-0.00610352	0.000610352	
5.40955	-0.00610352	0.000305176	
5.40833	-0.00640869	0	
5.40741	-0.00610352	-0.0012207	
5.40741	-0.00671387	0.000915527	
5.40741	-0.00579834	0	
5.40771	-0.00854492	0.000457764	
5.40802	-0.010376	0.000152588	
5.40741	-0.0112915	0.000305176	
5.40771	-0.0109863	0.0012207	
5.40741	-0.0106812	0.0012207	
5.40802	-0.0109863	0.00137329	
5.40771	-0.0115967	0.000457764	
5.40466	-0.0112915	-0.000152588	
5.40344	-0.0109863	0.00167847	
5.40283	-0.0106812	-0.000152588	
5.40314	-0.0109863	0.000762939	
5.40283	-0.0106812	0.000762939	
5.40283	-0.0115967	0.000152588	
5.40253	-0.0131226	0.000915527	
5.40222	-0.0152588	0.000457764	
5.40253	-0.0158691	0.000457764	
5.40253	-0.015564	0.000457764	
5.39948	-0.0158691	0.000152588	
5.39856	-0.0161743	0.00137329	
5.39825	-0.0161743	0.000457764	
5.39795	-0.0161743	0.000915527	
5.39764	-0.015564	0.000610352	
5.39795	-0.0158691	0.000762939	
5.39764	-0.0161743	0.000305176	
5.39795	-0.0161743	-0.000610352	
5.39795	-0.015564	-0.000457764	
5.39795	-0.0158691	0.000305176	
5.39764	-0.0158691	-0.000610352	
5.3949	-0.0177002	0.000762939	
5.39307	-0.020752	-0.000152588	
5.39276	-0.0210571	0.000762939	
5.39276	-0.0210571	0.000610352	
5.39246	-0.0210571	0.000305176	
5.39307	-0.0213623	0.000305176	
5.39246	-0.0213623	0.000457764	
5.39337	-0.020752	0.000457764	
5.39276	-0.0210571	0.000152588	
5.39307	-0.0213623	-0.0012207	
5.39246	-0.020752	0.000915527	
5.3894	-0.0210571	-0.000152588	
5.38849	-0.020752	0.000457764	
5.38788	-0.0210571	0.000457764	
5.38849	-0.0213623	0.000152588	
5.38879	-0.0210571	0.000305176	
5.38727	-0.0238037	0.00152588	
5.38818	-0.0256348	0.00106812	
5.38788	-0.0256348	0.000610352	
5.38818	-0.0259399	-0.000152588	
5.38757	-0.0256348	0.00137329	
5.38818	-0.0259399	0.000152588	
5.38483	-0.0259399	0.00106812	
5.38361	-0.0268555	0.000457764	
5.38361	-0.0262451	0.000457764	
5.38361	-0.0256348	0.000762939	
5.383	-0.0259399	0.000305176	
5.38269	-0.0256348	0.000305176	
5.3833	-0.0262451	0.000610352	
5.38239	-0.0259399	0.000457764	
5.383	-0.0256348	0.00106812	
5.383	-0.0259399	0.000152588	
5.38269	-0.0256348	0.000915527	
5.37994	-0.0286865	0.000762939	
5.3775	-0.0305176	0.000915527	
5.37842	-0.0308228	0.000305176	
5.37842	-0.0311279	-0.000152588	
5.37811	-0.0305176	0	
5.37842	-0.0302124	0.000457764	
5.3772	-0.0308228	-0.000457764	
5.37811	-0.0308228	0.00106812	
5.37781	-0.0308228	0.000152588	
5.37781	-0.0311279	0.00106812	
5.37476	-0.0308228	0.000152588	
5.37384	-0.0314331	0.000457764	
5.37354	-0.0311279	0.000610352	
5.37323	-0.0305176	0.000915527	
5.37292	-0.0311279	0.000457764	
5.37323	-0.0311279	0.000305176	
5.37354	-0.0308228	-0.00106812	
5.37323	-0.0332642	0.000915527	
5.37262	-0.0357056	0.000152588	
5.37354	-0.0357056	0.000610352	
5.37262	-0.0363159	-0.000152588	
5.37018	-0.0354004	0.000457764	
5.36865	-0.0360107	0.000610352	
5.36835	-0.0357056	0.0012207	
5.36835	-0.0357056	0.000762939	
5.36835	-0.0354004	0.000610352	
5.36835	-0.0357056	-0.000152588	
5.36835	-0.0357056	0.0012207	
5.36835	-0.0363159	0	
5.36835	-0.0350952	0.000762939	
5.36835	-0.0357056	0.000610352	
5.36835	-0.0354004	0.000305176	
5.36499	-0.0357056	0.000762939	
5.36346	-0.0354004	0.000457764	
5.36346	-0.038147	0.000152588	
5.36346	-0.0402832	0.000762939	
5.36346	-0.0408936	0.000152588	
5.36346	-0.0405884	0.0012207	
5.36346	-0.0405884	0.000305176	
5.36316	-0.0411987	0.0012207	
5.36316	-0.0402832	0.000915527	
5.36316	-0.0408936	0.000762939	
5.36011	-0.0405884	0.000152588	
5.35889	-0.0408936	-0.000457764	
5.35797	-0.0408936	-0.000305176	
5.35889	-0.0408936	0	
5.35858	-0.039978	-0.000305176	
5.35828	-0.0405884	0.0012207	
5.35889	-0.0402832	0	
5.35797	-0.039978	0.000762939	
5.35858	-0.0436401	0.000152588	
5.35797	-0.0448608	0.000457764	
5.35797	-0.0460815	0.000152588	
5.35553	-0.0454712	0.000152588	
5.3537	-0.0454712	0.000457764	
5.354	-0.0463867	0.000152588	
5.3537	-0.0457764	-0.0012207	
5.354	-0.045166	0.000457764	
5.35339	-0.045166	-0.000305176	
5.35339	-0.045166	0.000457764	
5.35339	-0.045166	0.000152588	
5.3537	-0.0454712	0	
5.35339	-0.0457764	0.000610352	
5.35004	-0.0457764	0.00152588	
5.34882	-0.0445557	0.00137329	
5.34821	-0.0457764	0.000762939	
5.34821	-0.0479126	0	
5.34882	-0.050354	0.0012207	
5.34943	-0.050354	0.000152588	
5.34882	-0.0509644	0.00106812	
5.3479	-0.0497437	0.000610352	
5.34882	-0.0509644	0.000457764	
5.34882	-0.0506592	0.000610352	
5.34821	-0.050354	0.000762939	
5.34576	-0.0497437	0.000762939	
5.34363	-0.0509644	0.00106812	
5.34302	-0.0506592	0.000457764	
5.34393	-0.0506592	0.00167847	
5.34332	-0.0506592	0.000152588	
5.34363	-0.0500488	0.00106812	
5.34332	-0.0506592	0.000915527	
5.34424	-0.050354	0.000762939	
5.34424	-0.0531006	0.000305176	
5.34332	-0.0543213	-0.000457764	
5.34058	-0.0549316	-0.000457764	
5.33875	-0.055542	0.000457764	
5.33844	-0.055542	-0.00106812	
5.33905	-0.0552368	0.00106812	
5.33844	-0.0558472	-0.000152588	
5.33813	-0.0549316	0.000610352	
5.33875	-0.0549316	0.000457764	
5.33905	-0.0552368	0.000305176	
5.33936	-0.055542	-0.000305176	
5.33813	-0.0552368	0.000305176	
5.33905	-0.055542	0.000457764	
5.33539	-0.0543213	0.000152588	
5.33417	-0.0579834	-0.000762939	
5.33417	-0.0598145	0.00106812	
5.33386	-0.06073	-0.000152588	
5.33386	-0.0604248	0.000457764	
5.33386	-0.0598145	0.000152588	
5.33356	-0.0604248	0.000305176	
5.33356	-0.06073	0.000762939	
5.33386	-0.0601196	0.0012207	
5.33417	-0.0604248	0.0012207	
5.33386	-0.0604248	0.000457764	
5.33112	-0.06073	0	
5.32837	-0.0598145	0.00106812	
5.32837	-0.0604248	0.000305176	
5.32898	-0.0601196	0.000762939	
5.32928	-0.0631714	0.000915527	
5.32867	-0.0653076	0.000610352	
5.32898	-0.0646973	0.000610352	
5.32898	-0.0653076	0.000457764	
5.32898	-0.0643921	0.000305176	
5.32867	-0.0653076	0.000457764	
5.32562	-0.0646973	0.000457764	
5.3241	-0.065918	0.00183105	
5.32318	-0.0653076	0.000305176	
5.3241	-0.0650024	0.000915527	
5.32349	-0.0656128	0.000457764	
5.3241	-0.0646973	0.00106812	
5.32318	-0.0653076	0.000152588	
5.32349	-0.0680542	-0.000152588	
5.3241	-0.0698853	-0.000457764	
5.32379	-0.0695801	0.000305176	
5.32257	-0.0701904	-0.000305176	
5.32135	-0.0698853	0.000915527	
5.3186	-0.0701904	0	
5.31891	-0.0701904	0.000915527	
5.3186	-0.0704956	0.000305176	
5.31891	-0.0692749	0.000457764	
5.31891	-0.0704956	0.000152588	
5.3186	-0.0701904	0.000762939	
5.3186	-0.0701904	0.000762939	
5.3186	-0.0698853	0.000305176	
5.31891	-0.072937	-0.000915527	
5.31555	-0.0744629	0.000915527	
5.31372	-0.0747681	-0.000152588	
5.31403	-0.0750732	0.000457764	
5.31403	-0.0747681	0.000305176	
5.31433	-0.0744629	0.000305176	
5.31403	-0.0747681	0.000457764	
5.31403	-0.0744629	0.00137329	
5.31372	-0.0747681	0.00106812	
5.31464	-0.0747681	0.000610352	
5.31403	-0.0753784	-0.000152588	
5.31403	-0.0750732	0.00106812	
5.31036	-0.0753784	0.000305176	
5.30945	-0.0772095	0.000762939	
5.30975	-0.0796509	0.000457764	
5.30914	-0.0799561	0.000457764	
5.30945	-0.0796509	0.000762939	
5.30914	-0.0799561	0.000610352	
5.30914	-0.0796509	0.000305176	
5.30914	-0.0793457	0.000915527	
5.30853	-0.0799561	0.000457764	
5.30945	-0.0793457	0.00137329	
5.30853	-0.0796509	0	
5.30579	-0.0799561	0.000915527	
5.30457	-0.0796509	0.000457764	
5.30487	-0.0820923	0.000610352	
5.30457	-0.085144	0.000305176	
5.30396	-0.0848389	-0.000152588	
5.30365	-0.0848389	-0.000305176	
5.30334	-0.0848389	0	
5.30365	-0.085144	-0.00106812	
5.30487	-0.0842285	0.00106812	
5.30426	-0.085144	0	
5.3009	-0.0842285	0.000457764	
5.29968	-0.0839233	0.000305176	
5.29907	-0.0845337	0.000305176	
5.29907	-0.085144	0.000305176	
5.29938	-0.0872803	0.000457764	
5.29938	-0.0891113	0.000305176	
5.29907	-0.0900269	0.000305176	
5.29846	-0.0900269	-0.000762939	
5.29846	-0.0894165	0.000762939	
5.29938	-0.0900269	0	
5.29846	-0.088501	0.000457764	
5.29602	-0.0894165	0.000152588	
5.2951	-0.0894165	0.000457764	
5.29419	-0.0897217	0.000762939	
5.29419	-0.0897217	0.00106812	
5.29388	-0.0888062	0.00152588	
5.29388	-0.0921631	0.000305176	
5.29449	-0.0942993	0	
5.29419	-0.0949097	0.0012207	
5.29449	-0.0946045	0.000457764	
5.29358	-0.0939941	0.00106812	
5.29022	-0.0939941	0.000457764	
5.28961	-0.0952148	0.000457764	
5.28931	-0.0942993	0.000457764	
5.28931	-0.0952148	0.000610352	
5.28961	-0.0946045	0.000457764	
5.28931	-0.0946045	0.000915527	
5.289	-0.0946045	0.000457764	
5.28931	-0.0970459	0.00152588	
5.28931	-0.0991821	-0.000152588	
5.28931	-0.0994873	0.00106812	
5.289	-0.0997925	0.000762939	
5.28625	-0.0991821	0.000610352	
5.28442	-0.0997925	0.000152588	
5.28412	-0.0994873	-0.000305176	
5.28442	-0.0991821	-0.000152588	
5.28442	-0.0994873	0.000152588	
5.28442	-0.0997925	-0.000305176	
5.28503	-0.0994873	0.0012207	
5.28442	-0.101929	-0.000152588	
5.28412	-0.10376	0.000915527	
5.28381	-0.10437	0.000152588	
5.28412	-0.10437	0.000762939	
5.28137	-0.10376	0	
5.27985	-0.104675	0.000305176	
5.27924	-0.104675	0.000152588	
5.27924	-0.10498	0	
5.27954	-0.10498	-0.00106812	
5.27924	-0.10437	0.000915527	
5.27893	-0.104065	0	
5.27954	-0.104065	0.000457764	
5.28076	-0.107117	0.000152588	
5.27924	-0.108948	0	
5.27649	-0.108948	0.00106812	
5.27435	-0.109253	0.00137329	
5.27466	-0.108948	0.00106812	
5.27435	-0.108948	0.000610352	
5.27466	-0.109863	-0.000305176	
5.27466	-0.108643	0.00152588	
5.27405	-0.109863	-0.000152588	
5.27466	-0.108948	0.000762939	
5.27435	-0.108948	0.000305176	
5.27466	-0.11261	0.000457764	
5.27435	-0.114136	0.000457764	
5.27161	-0.114746	0.000305176	
5.27008	-0.114136	0.000610352	
5.26978	-0.114441	0.000762939	
5.26947	-0.114746	0.000152588	
5.26978	-0.114441	0.00137329	
5.27008	-0.114136	0	
5.27008	-0.114441	0.00137329	
5.27008	-0.114441	0.000610352	
5.27008	-0.114441	0.000915527	
5.26978	-0.113831	0.000152588	
5.26917	-0.116882	-0.000610352	
5.26642	-0.118408	-0.000610352	
5.2652	-0.118713	0	
5.26489	-0.119324	-0.000762939	
5.26428	-0.119324	0.0012207	
5.26459	-0.119934	0	
5.26489	-0.119629	0.000457764	
5.26489	-0.119324	0.000305176	
5.2655	-0.119019	0.000305176	
5.26489	-0.119324	0.000152588	
5.26428	-0.119324	0.000305176	
5.26459	-0.122375	0.000457764	
5.26123	-0.124207	0.000152588	
5.26001	-0.124817	-0.00137329	
5.26001	-0.123901	0.00106812	
5.2597	-0.124207	-0.000305176	
5.2597	-0.123901	0.000305176	
5.2597	-0.124207	0.000457764	
5.2594	-0.123901	0.000152588	
5.2594	-0.124207	0.000457764	
5.2597	-0.124207	0.00152588	
5.2594	-0.123596	0.00106812	
5.26001	-0.124207	0.000457764	
5.25665	-0.126343	-0.000152588	
5.25513	-0.128784	0.00106812	
5.25513	-0.129395	0.000457764	
5.25452	-0.129089	0.00106812	
5.25482	-0.128479	0.000610352	
5.25452	-0.129089	0.000305176	
5.25482	-0.129089	0.000610352	
5.25421	-0.129395	0.000457764	
5.25452	-0.129395	0.000610352	
5.25513	-0.128784	0.000762939	
5.25452	-0.128479	0.000152588	
5.25421	-0.131226	0.00167847	
5.25177	-0.133972	0.000305176	
5.24994	-0.134583	0.00106812	
5.24994	-0.133667	0.000762939	
5.24963	-0.133057	0.000610352	
5.24963	-0.133972	0.000152588	
5.24933	-0.133667	-0.000457764	
5.24963	-0.133362	-0.000457764	
5.24933	-0.133972	0.000305176	
5.25024	-0.133972	-0.00106812	
5.24963	-0.133972	0.00106812	
5.24994	-0.133972	0	
5.24597	-0.136108	0.000915527	
5.24567	-0.138855	0.000457764	
5.24536	-0.138855	0.000610352	
5.24475	-0.13916	0.000305176	
5.24475	-0.138245	0.000305176	
5.24445	-0.13855	0.000305176	
5.24506	-0.13855	0.000305176	
5.24567	-0.13916	-0.00137329	
5.24475	-0.13855	0.00106812	
5.24414	-0.13916	0	
5.24475	-0.13855	0.000457764	
5.242	-0.138245	0.000610352	
5.23987	-0.141907	0.000305176	
5.23956	-0.144043	0.000305176	
5.23987	-0.143433	0.00137329	
5.23987	-0.143433	0.0012207	
5.23895	-0.144043	0.000762939	
5.24078	-0.143738	0	
5.23865	-0.143433	0.00152588	
5.24048	-0.143738	0.000152588	
5.23987	-0.143433	0.000915527	
5.23987	-0.143433	0.000915527	
5.23987	-0.143433	0.000762939	
5.23712	-0.144348	0.000610352	
5.23499	-0.143738	0.000610352	
5.23499	-0.146484	0.000457764	
5.23499	-0.14801	0.000915527	
5.23438	-0.148621	0.000762939	
5.23499	-0.148926	0.00137329	
5.23499	-0.148926	0.000457764	
5.23468	-0.148621	0.0012207	
5.23376	-0.148315	0.000610352	
5.23468	-0.148926	0.000762939	
5.23499	-0.148926	0.000152588	
5.23468	-0.14801	-0.000457764	
5.23163	-0.148621	0	
5.23102	-0.148315	0.000152588	
5.2301	-0.148621	-0.000457764	
5.2298	-0.148315	0.000915527	
5.23071	-0.151062	-0.000152588	
5.23071	-0.152893	0.000762939	
5.2298	-0.153198	0.000305176	
5.2298	-0.153198	0.000457764	
5.2298	-0.153503	0.000152588	
5.2301	-0.153198	0.000305176	
5.2298	-0.153503	0.000152588	
5.2301	-0.153198	-0.000152588	
5.22736	-0.153809	-0.000915527	
5.22552	-0.153809	0.000762939	
5.22461	-0.153198	-0.000305176	
5.22552	-0.153503	0.000457764	
5.22552	-0.153503	0.000762939	
5.22491	-0.153198	0.000457764	
5.22522	-0.153198	0.000305176	
5.22522	-0.15625	0.00137329	
5.22491	-0.157471	0.00106812	
5.22522	-0.158386	0.000457764	
5.22491	-0.158386	0	
5.22552	-0.158081	0.00167847	
5.22217	-0.158081	0.000152588	
5.22064	-0.158081	0.000915527	
5.22003	-0.158081	0.000305176	
5.22034	-0.158691	0.000762939	
5.22095	-0.157776	0.000610352	
5.22064	-0.158997	0.000457764	
5.22034	-0.158081	0.000762939	
5.22064	-0.157776	0.000610352	
5.21973	-0.158691	0.000305176	
5.22034	-0.157776	0.00167847	
5.22095	-0.158386	0	
5.22034	-0.157776	0.00106812	
5.21729	-0.160522	0.000610352	
5.21545	-0.162048	0.000762939	
5.21545	-0.163269	0	
5.21515	-0.162964	-0.000152588	
5.21545	-0.162964	-0.000457764	
5.21515	-0.163574	0.000610352	
5.21576	-0.162964	-0.000762939	
5.21484	-0.162964	0.00106812	
5.21606	-0.163269	-0.000152588	
5.21576	-0.163269	0.000610352	
5.21606	-0.163269	0.000457764	
5.21576	-0.163269	0.000457764	
5.21515	-0.162964	0.000152588	
5.2121	-0.163574	0.000457764	
5.21057	-0.163574	0.000457764	
5.21057	-0.163269	0.000305176	
5.20966	-0.163269	-0.0012207	
5.21027	-0.162964	0.00106812	
5.21088	-0.16571	-0.000152588	
5.21088	-0.167542	0.000457764	
5.21027	-0.167847	0.000457764	
5.21088	-0.167847	-0.000152588	
5.21057	-0.167236	0.000762939	
5.21057	-0.167847	0.00137329	
5.21027	-0.167542	0.0012207	
5.20782	-0.168152	0.000610352	
5.2063	-0.168457	-0.000305176	
5.20569	-0.168152	0.00106812	
5.20508	-0.167542	0.000610352	
5.20508	-0.168152	0.000915527	
5.20477	-0.168457	0.000610352	
5.20569	-0.167542	0.000457764	
5.20569	-0.168152	0.000610352	
5.20538	-0.168152	0.000762939	
5.20508	-0.168152	0.000152588	
5.20569	-0.168457	0.000762939	
5.20599	-0.167847	0.000305176	
5.20538	-0.167847	0.00137329	
5.20264	-0.170288	0	
5.20111	-0.171814	0.00106812	
5.2002	-0.173035	0.000610352	
5.20081	-0.172729	0.000610352	
5.20081	-0.172729	0.000305176	
5.20111	-0.173645	-0.000305176	
5.20081	-0.17334	-0.000152588	
5.2002	-0.172119	0.000305176	
5.2002	-0.173035	-0.000762939	
5.20081	-0.172729	0.0012207	
5.2002	-0.173035	-0.000152588	
5.2002	-0.173035	0.000762939	
5.2002	-0.172729	0.000305176	
5.19684	-0.17334	0.000152588	
5.19623	-0.173645	0.000457764	
5.19562	-0.173035	0.000305176	
5.19592	-0.172424	0.000305176	
5.19562	-0.172424	0.000305176	
5.19562	-0.173035	-0.00106812	
5.19592	-0.172729	0.00106812	
5.19562	-0.173035	-0.000152588	
5.19562	-0.173035	0.000762939	
5.19592	-0.17334	0.000762939	
5.19592	-0.17334	0.000152588	
5.19562	-0.172424	0.000762939	
5.19531	-0.175171	0.00106812	
5.19226	-0.177612	0.0012207	
5.19135	-0.177917	0.000457764	
5.19073	-0.177917	0.000305176	
5.19012	-0.177307	0.000915527	
5.19104	-0.178223	0.000152588	
5.19073	-0.178223	0.00106812	
5.19073	-0.177917	0.000610352	
5.19073	-0.178223	0.000457764	
5.19073	-0.178223	0.000305176	
5.19073	-0.177917	0.000457764	
5.19104	-0.177917	0.000610352	
5.19043	-0.177307	0.000457764	
5.19073	-0.177917	0.000305176	
5.19073	-0.177612	0.00137329	
5.18768	-0.177917	0	
5.18616	-0.177917	0.0012207	
5.18616	-0.177917	0.000915527	
5.18616	-0.177612	0.000610352	
5.18616	-0.178223	0.000152588	
5.18585	-0.177612	-0.000305176	
5.18585	-0.177917	-0.000457764	
5.18555	-0.177307	0	
5.18524	-0.178528	-0.000610352	
5.18646	-0.177307	0.00106812	
5.18616	-0.178223	-0.000305176	
5.18585	-0.177612	0.000915527	
5.18616	-0.177612	0.000457764	
5.18555	-0.177612	0.000305176	
5.18311	-0.177917	0.000305176	
5.18188	-0.177612	0.000457764	
5.18158	-0.180359	0.000457764	
5.18097	-0.1828	0.000152588	
5.18066	-0.182495	-0.00152588	
5.18188	-0.183105	0.000762939	
5.18097	-0.183105	-0.000152588	
5.18036	-0.1828	0.000152588	
5.18097	-0.1828	0.000152588	
5.18127	-0.182495	0.000305176	
5.18158	-0.1828	0.000915527	
5.18066	-0.182495	0.00106812	
5.18127	-0.182495	0.0012207	
5.18097	-0.1828	0.000305176	
5.17731	-0.1828	0	
5.17639	-0.183105	0.00106812	
5.17639	-0.182495	0.000305176	
5.17609	-0.1828	0.000762939	
5.17578	-0.183411	0.000152588	
5.17609	-0.183105	0.000305176	
5.17578	-0.182495	0.000610352	
5.17639	-0.183105	0.000762939	
5.1767	-0.1828	0.000457764	
5.17639	-0.1828	0.00106812	
5.17578	-0.18219	0.000457764	
5.17578	-0.181885	0.00137329	
5.17609	-0.1828	0.000305176	
5.17578	-0.182495	0.0012207	
5.17609	-0.1828	0.000152588	
5.17242	-0.183716	0.000915527	
5.17151	-0.1828	0.000305176	
5.17029	-0.1828	-0.000457764	
5.1712	-0.1828	-0.000305176	
5.17181	-0.183411	0.000152588	
5.1712	-0.1828	-0.000915527	
5.17151	-0.1828	0.00106812	
5.1712	-0.1828	0	
5.1709	-0.182495	0.000610352	
5.17059	-0.182495	0.000305176	
5.17059	-0.1828	0.000457764	
5.17059	-0.183105	0.000305176	
5.1712	-0.183105	0.000457764	
5.17059	-0.183105	0	
5.17181	-0.183105	0	
5.16998	-0.184937	-0.00106812	
5.16846	-0.187683	0.000762939	
5.16632	-0.187988	-0.000152588	
5.16602	-0.187073	0.000610352	
5.16632	-0.187683	0.000457764	
5.16632	-0.187683	0.000152588	
5.16632	-0.187378	0.000762939	
5.16541	-0.187378	0.00106812	
5.16632	-0.188293	0.0012207	
5.16602	-0.187988	0.000457764	
5.16571	-0.187988	0	
5.16632	-0.187683	0.0012207	
5.16632	-0.187378	0.000305176	
5.16571	-0.188293	0.000915527	
5.16632	-0.187988	0.000152588	
5.16663	-0.187378	0.000457764	
5.16632	-0.187683	0.000305176	
5.16266	-0.187683	0.000610352	
5.16205	-0.187378	0.000152588	
5.16113	-0.187683	0.000762939	
5.16022	-0.187378	0.000152588	
5.16113	-0.187683	0.00183105	
5.16052	-0.187683	0	
5.16174	-0.187988	0.00106812	
5.16083	-0.187378	0.000457764	
5.16144	-0.187073	0.000305176	
5.16174	-0.187988	0.000152588	
5.16113	-0.187378	-0.000305176	
5.16052	-0.187988	-0.000305176	
5.16113	-0.187988	0.000305176	
5.16083	-0.187683	-0.00106812	
5.16052	-0.187683	0.0012207	
5.16113	-0.188293	0	
5.15717	-0.187988	0.000915527	
5.15594	-0.187378	0.000457764	
5.15533	-0.187988	0.000305176	
5.15625	-0.187378	0.000305176	
5.15625	-0.187378	0.000610352	
5.15625	-0.187073	0.000152588	
5.15625	-0.187683	-0.000152588	
5.15656	-0.187988	-0.00137329	
5.15594	-0.187988	0.000915527	
5.15625	-0.188904	0	
5.15656	-0.187988	0.000915527	
5.15594	-0.187378	0.000152588	
5.15564	-0.187683	0.000305176	
5.15656	-0.187073	0.000915527	
5.15656	-0.187988	0.00167847	
5.15564	-0.187378	0.000762939	
5.1532	-0.187683	0.000457764	
5.15167	-0.187378	0	
5.15137	-0.187988	0.0012207	
5.15106	-0.187988	0	
5.15137	-0.187683	0.000915527	
5.15106	-0.187683	0.000457764	
5.15106	-0.187073	0.000457764	
5.15167	-0.187988	0.000762939	
5.15137	-0.187378	0.000457764	
5.15167	-0.187683	0.000915527	
5.15137	-0.187378	0.000762939	
5.15137	-0.188293	0	
5.15137	-0.187378	0.00137329	
5.15167	-0.187683	0	
5.15137	-0.187683	0.00106812	
5.15167	-0.187073	0.000610352	
5.15137	-0.187683	0.000457764	
5.14771	-0.187988	0.000152588	
5.14709	-0.187988	-0.000305176	
5.14648	-0.187378	-0.000152588	
5.14648	-0.187683	0.000305176	
5.14618	-0.187988	-0.000915527	
5.14648	-0.187988	0.00106812	
5.14679	-0.188293	-0.000305176	
5.14648	-0.187683	0.000762939	
5.14679	-0.187988	0.000457764	
5.14679	-0.187683	0.000457764	
5.14679	-0.187988	0	
5.14618	-0.187378	0.000305176	
5.14679	-0.187988	0.000610352	
5.14648	-0.187988	0	
5.14648	-0.187988	-0.0012207	
5.14587	-0.187378	0.00106812	
5.14343	-0.187683	-0.000152588	
5.14221	-0.187378	0.000457764	
5.14221	-0.187378	0.000305176	
5.14099	-0.187988	0	
5.14099	-0.187683	0.00106812	
5.1416	-0.187378	0.0012207	
5.14099	-0.187378	0.00137329	
5.1413	-0.187683	0.000762939	
5.1416	-0.187073	0	
5.1413	-0.187683	0.0012207	
5.14191	-0.187683	0.000305176	
5.1416	-0.187378	0.00106812	
5.14099	-0.187073	0.000457764	
5.1416	-0.187988	0.000305176	
5.14008	-0.187378	0.000610352	
5.13824	-0.187988	0.000305176	
5.13702	-0.187378	0.000457764	
5.13672	-0.187683	0.000762939	
5.13641	-0.187378	0.000762939	
5.13672	-0.187988	0.00152588	
5.1358	-0.187378	0.000152588	
5.13702	-0.187378	0.0012207	
5.13611	-0.187378	0.000305176	
5.13702	-0.187378	0.000915527	
5.13672	-0.187073	0.000152588	
5.13641	-0.188293	-0.000152588	
5.13702	-0.187378	-0.000457764	
5.13641	-0.187683	0	
5.13672	-0.187988	-0.000457764	
5.13611	-0.187378	0.000915527	
5.13306	-0.187988	0	
5.13123	-0.187378	0.000915527	
5.13153	-0.187988	0.000762939	
5.13123	-0.187378	0.000762939	
5.13153	-0.188599	0	
5.13123	-0.187988	0.000457764	
5.13214	-0.187988	0.000152588	
5.13153	-0.187988	0.000305176	
5.13184	-0.187378	-0.00137329	
5.13123	-0.187683	0.000457764	
5.13123	-0.187683	0	
5.13184	-0.187988	0.000762939	
5.13092	-0.187683	0.000457764	
5.13123	-0.187988	0.000305176	
5.13153	-0.186768	0.000762939	
5.12848	-0.188293	0.00152588	
5.12726	-0.187988	0.000915527	
5.12634	-0.187683	0.000457764	
5.12665	-0.187683	-0.000152588	
5.12634	-0.187988	0.00137329	
5.12695	-0.187378	0.000152588	
5.12665	-0.187988	0.000762939	
5.12726	-0.187378	0.000305176	
5.12695	-0.188293	0.000457764	
5.12634	-0.187378	0.000762939	
5.12695	-0.187988	0.000610352	
5.12634	-0.187988	0.000457764	
5.12695	-0.187378	0.000915527	
5.12665	-0.187378	0.000915527	
5.12634	-0.187378	0.00152588	
5.12329	-0.187988	0.000152588	
5.12268	-0.187378	0.000915527	
5.12146	-0.187378	0.000610352	
5.12207	-0.188293	0.000610352	
5.12146	-0.187073	0.000152588	
5.12146	-0.187683	-0.000457764	
5.12115	-0.188293	0	
5.12238	-0.187988	0.000305176	
5.12177	-0.187683	-0.000305176	
5.12146	-0.187683	0.000915527	
5.12115	-0.187378	0	
5.12115	-0.187988	0.000762939	
5.12207	-0.187683	0.000305176	
5.12054	-0.187683	0.000457764	
5.11902	-0.187378	0.000610352	
5.1178	-0.187378	0.000610352	
5.11658	-0.187683	0.000305176	
5.11688	-0.187988	0	
5.11627	-0.187988	-0.0012207	
5.11749	-0.187073	0.00106812	
5.11597	-0.187988	0	
5.11688	-0.187378	0.000305176	
5.11658	-0.187378	0.000457764	
5.11719	-0.184937	0.000152588	
5.11658	-0.18219	0.000610352	
5.11749	-0.1828	0.00152588	
5.11719	-0.1828	0.0012207	
5.11658	-0.182495	0.000305176	
5.11658	-0.1828	-0.000152588	
5.11383	-0.1828	0.00152588	
5.1123	-0.183105	0.000457764	
5.11139	-0.182495	0.000457764	
5.112	-0.1828	0.000457764	
5.1123	-0.183411	0.000457764	
5.112	-0.183105	0.000762939	
5.11169	-0.1828	0.000305176	
5.1123	-0.182495	0.000457764	
5.11169	-0.1828	0.000610352	
5.112	-0.183105	0.000152588	
5.11261	-0.182495	0.00106812	
5.1123	-0.183105	0.000305176	
5.112	-0.183105	0.0012207	
5.11108	-0.183716	0.000610352	
5.10864	-0.183105	0.000762939	
5.10742	-0.1828	0.000152588	
5.10681	-0.179749	-0.000152588	
5.10681	-0.177917	0	
5.10681	-0.177612	-0.000152588	
5.10742	-0.177917	-0.000457764	
5.10681	-0.178223	0.00106812	
5.10712	-0.178223	-0.000152588	
5.10651	-0.177307	0.000457764	
5.10651	-0.177307	0.000305176	
5.10773	-0.177612	0.000610352	
5.10773	-0.178223	0.000305176	
5.10712	-0.177612	0.000610352	
5.10651	-0.177612	0.000152588	
5.10376	-0.177307	0.000457764	
5.10254	-0.177917	-0.00137329	
5.10254	-0.175171	0.000762939	
5.10162	-0.17334	0	
5.10193	-0.173645	0.000457764	
5.10101	-0.17334	0.000457764	
5.10101	-0.17334	0.000152588	
5.10162	-0.172729	0.000457764	
5.10162	-0.172729	0.00152588	
5.10162	-0.173645	0.000915527	
5.10162	-0.172119	0.000457764	
5.10132	-0.173035	-0.000152588	
5.10162	-0.169983	0.00152588	
5.09949	-0.168152	0.000305176	
5.09766	-0.167542	0.000610352	
5.09735	-0.167847	0.000305176	
5.09674	-0.168457	0.000610352	
5.09766	-0.167847	0.000457764	
5.09613	-0.167542	0.000762939	
5.09705	-0.168152	0.000457764	
5.09735	-0.168457	0.000610352	
5.09735	-0.1651	0.000305176	
5.09674	-0.164185	0.00137329	
5.09674	-0.162964	0.000152588	
5.09644	-0.162964	0.00106812	
5.09674	-0.162964	0.000762939	
5.09705	-0.162659	0.000915527	
5.09338	-0.163269	0	
5.09216	-0.160217	-0.000152588	
5.09186	-0.158691	-0.000305176	
5.09125	-0.158386	0.000152588	
5.09125	-0.158081	-0.000610352	
5.09186	-0.157776	0.00106812	
5.09216	-0.158386	0	
5.09125	-0.158386	0.000762939	
5.09186	-0.155334	0.000762939	
5.09216	-0.153503	0.000610352	
5.09094	-0.152893	0.000305176	
5.09155	-0.153503	0.000610352	
5.09155	-0.153809	0.000305176	
5.08942	-0.151062	0	
5.08728	-0.148926	-0.0012207	
5.08667	-0.148621	0.0012207	
5.08698	-0.148926	0.000152588	
5.08728	-0.148315	0.000457764	
5.08728	-0.148621	0.000305176	
5.08698	-0.146179	0.000152588	
5.08698	-0.143433	0.000457764	
5.08728	-0.143433	0.00106812	
5.08636	-0.144043	0.000915527	
5.08698	-0.143433	0.000762939	
5.08728	-0.141602	0	
5.08698	-0.139771	0.00137329	
5.08392	-0.13855	0.000152588	
5.08209	-0.138245	0.000915527	
5.08209	-0.135803	0.000305176	
5.08179	-0.134583	0.000152588	
5.08179	-0.133972	0.000610352	
5.08209	-0.133667	0.000457764	
5.0824	-0.133972	0.000457764	
5.0824	-0.131226	0.000762939	
5.0827	-0.129089	0	
5.08179	-0.129089	0.00137329	
5.08148	-0.129089	0.000457764	
5.0824	-0.126038	0.000915527	
5.08179	-0.124817	0.000457764	
5.07996	-0.124207	0.000915527	
5.07813	-0.124512	0	
5.07721	-0.121155	-0.000610352	
5.07813	-0.119019	0	
5.07751	-0.119019	0.000152588	
5.07813	-0.119629	-0.000610352	
5.07782	-0.116272	0.00106812	
5.07843	-0.114746	0	
5.07721	-0.114136	0.000915527	
5.07843	-0.113525	0.000152588	
5.07813	-0.110779	0.000305176	
5.07843	-0.109863	0	
5.07751	-0.109558	0.000305176	
5.07507	-0.106506	0.000305176	
5.07294	-0.10498	0	
5.07324	-0.104675	-0.00167847	
5.07355	-0.104065	0.00106812	
5.07294	-0.101318	0.000152588	
5.07294	-0.0997925	0.000305176	
5.07294	-0.0991821	0.000305176	
5.07233	-0.0967407	-0.000152588	
5.07263	-0.0949097	0.000915527	
5.07324	-0.0942993	0.00106812	
5.07324	-0.0942993	0.00106812	
5.07294	-0.0915527	0.000610352	
5.07263	-0.090332	-0.000152588	
5.06958	-0.0897217	0.0012207	
5.06836	-0.0866699	0.000152588	
5.06836	-0.0845337	0.000762939	
5.06775	-0.0848389	0.000457764	
5.06775	-0.0817871	0.000457764	
5.06744	-0.0802612	0.000457764	
5.06775	-0.0799561	0.000305176	
5.06744	-0.0769043	0.000305176	
5.06805	-0.0753784	0.000762939	
5.06775	-0.0747681	0.000305176	
5.06836	-0.0717163	0.00152588	
5.06714	-0.0704956	0	
5.06561	-0.0692749	0.00106812	
5.06287	-0.0671387	0.000305176	
5.06348	-0.0656128	0.000457764	
5.06348	-0.065918	0.000152588	
5.06287	-0.0622559	-0.000457764	
5.06317	-0.0604248	0	
5.06317	-0.06073	0.000457764	
5.06348	-0.0576782	-0.0012207	
5.06348	-0.0558472	0.0012207	
5.06256	-0.055542	-0.000457764	
5.06287	-0.0531006	0.000610352	
5.06287	-0.0509644	0.000457764	
5.06012	-0.0469971	0.000305176	
5.05859	-0.0463867	0.000457764	
5.05859	-0.0448608	0.000305176	
5.05859	-0.0430298	0.000457764	
5.05859	-0.0411987	0.000305176	
5.05859	-0.0402832	-0.00152588	
5.05798	-0.0375366	0.0012207	
5.05737	-0.0360107	-0.000152588	
5.05768	-0.0344849	0.000305176	
5.05859	-0.032959	0.000610352	
5.05768	-0.0314331	0.000457764	
5.05829	-0.0283813	0.000762939	
5.05737	-0.0259399	0.00106812	
5.05463	-0.0259399	0.00106812	
5.0531	-0.0228882	0.000457764	
5.0531	-0.0216675	-0.000457764	
5.0531	-0.0186157	0.000915527	
5.05341	-0.0170898	0.000305176	
5.05249	-0.0167847	0.000762939	
5.0531	-0.0134277	0.000762939	
5.05341	-0.0119019	0.000305176	
5.05341	-0.0112915	0.000610352	
5.05249	-0.00793457	0.000305176	
5.05341	-0.00701904	0.000305176	
5.0528	-0.00305176	0.000915527	
5.04944	-0.00152588	0.000305176	
5.04822	-0.00152588	0.00152588	
5.04822	0.000305176	-0.000152588	
5.04761	0.00274658	0.000762939	
5.04822	0.00610352	0.000305176	
5.04791	0.00762939	0.000610352	
5.04822	0.0088501	0	
5.04822	0.0106812	-0.000152588	
5.04791	0.0128174	-0.000152588	
5.04761	0.0161743	0.000610352	
5.04791	0.0180054	-0.000762939	
5.04791	0.0186157	0.00106812	
5.04456	0.0210571	-0.000457764	
5.04333	0.022583	0.000762939	
5.04333	0.0259399	0.000610352	
5.04364	0.0280762	0.000457764	
5.04364	0.0280762	0.000457764	
5.04303	0.0302124	0.000305176	
5.04333	0.0323486	0.000152588	
5.04333	0.0357056	-0.000152588	
5.04364	0.0369263	-0.00106812	
5.04303	0.038147	0.00137329	
5.04272	0.039978	-0.000152588	
5.04333	0.0430298	0.000610352	
5.03967	0.0460815	0.000762939	
5.03906	0.0469971	0	
5.03815	0.0476074	0.000915527	
5.03815	0.0506592	0.00137329	
5.03845	0.0521851	0.000915527	
5.03845	0.0558472	0.000762939	
5.03784	0.0570679	0.000152588	
5.03815	0.0570679	0.0012207	
5.03784	0.0598145	0.000152588	
5.03784	0.0619507	0.000762939	
5.03784	0.0650024	0.000152588	
5.03784	0.0674438	0.000457764	
5.0351	0.0674438	0.000305176	
5.03326	0.0698853	0.000305176	
5.03326	0.0720215	0.000610352	
5.03326	0.0747681	0.000915527	
5.03326	0.0765991	0.000152588	
5.03418	0.0769043	0.00137329	
5.03357	0.0793457	0.000152588	
5.03296	0.0814819	0.00106812	
5.03296	0.0839233	0.000457764	
5.03296	0.0860596	0.000457764	
5.03326	0.0860596	-0.000305176	
5.03265	0.088501	-0.000305176	
5.03021	0.0900269	-0.000152588	
5.0293	0.093689	0.000305176	
5.02838	0.0952148	-0.000762939	
5.02869	0.0964355	0.00106812	
5.02838	0.0985718	-0.000457764	
5.02869	0.100098	0.000762939	
5.02869	0.103455	0.000610352	
5.0293	0.105896	0.000305176	
5.02808	0.106201	0	
5.02869	0.108032	0.000457764	
5.02808	0.109558	0.000152588	
5.02533	0.111084	0.000457764	
5.02441	0.113525	-0.00137329	
5.02319	0.115356	0.000915527	
5.02289	0.118408	-0.000305176	
5.0235	0.119934	0.000457764	
5.0238	0.120239	0.000305176	
5.0235	0.123291	0	
5.02319	0.125427	0.000457764	
5.0235	0.128479	0.00167847	
5.02319	0.130005	0.000762939	
5.0235	0.1297	0.000305176	
5.02289	0.133057	0	
5.02106	0.134277	0.00152588	
5.01862	0.135498	0.000152588	
5.01831	0.137634	0.000762939	
5.01892	0.13916	0	
5.01831	0.140381	0.000610352	
5.01862	0.143127	0.000610352	
5.01831	0.144043	0.000457764	
5.01801	0.148315	0.000305176	
5.01801	0.149536	0.000915527	
5.01801	0.150757	0.000152588	
5.01862	0.152588	0.00152588	
5.01831	0.153809	0.000305176	
5.01526	0.155334	0.00106812	
5.01434	0.157166	0.000457764	
5.01404	0.159302	0.000457764	
5.01404	0.159302	-0.000152588	
5.01343	0.162964	-0.000152588	
5.01343	0.164795	-0.000152588	
5.01373	0.164185	0.000305176	
5.01373	0.167236	-0.000762939	
5.01343	0.169373	0.0012207	
5.01343	0.169373	-0.000152588	
5.01343	0.172119	0.000457764	
5.01343	0.174866	0.000305176	
5.01099	0.174561	0.000457764	
5.00916	0.177002	0.000305176	
5.00854	0.178528	0.000610352	
5.00916	0.178833	0	
5.00885	0.182495	0.000152588	
5.00854	0.184326	-0.0012207	
5.00916	0.184326	0.00106812	
5.00824	0.187073	-0.000152588	
5.00916	0.188904	0.000457764	
5.00854	0.188599	0.000610352	
5.00916	0.192261	0.000305176	
5.00854	0.193176	0.000915527	
5.00793	0.194397	0.0012207	
5.0058	0.196228	0.00106812	
5.00366	0.198669	0.000457764	
5.00397	0.198669	-0.000152588	
5.00305	0.19928	0.00137329	
5.00366	0.201721	0.000152588	
5.00366	0.203552	0.000915527	
5.00366	0.203247	0.000610352	
5.00397	0.206909	0.000457764	
5.00336	0.20813	0.000457764	
5.00305	0.209045	0.000305176	
5.00305	0.20813	0.000457764	
5.00366	0.210876	0.000610352	
5.00092	0.212708	0.000457764	
4.99908	0.213623	0.00152588	
4.99878	0.216675	0.000305176	
4.99908	0.218201	0.0012207	
4.99878	0.218506	0	
4.99878	0.219116	0.000610352	
4.99908	0.221558	0.000305176	
4.99908	0.222778	-0.000610352	
4.99878	0.223694	-0.000152588	
4.99817	0.223694	0.000152588	
4.99878	0.22583	-0.0012207	
4.99847	0.228577	0.00106812	
4.99847	0.228271	-0.000457764	
4.99603	0.229187	0.000610352	
4.9939	0.231018	0.000305176	
4.9939	0.233459	0.000305176	
4.9942	0.233154	0.000305176	
4.99329	0.233765	0.000152588	
4.9942	0.235901	0.000152588	
4.99359	0.238342	0.000152588	
4.99359	0.237732	-0.0012207	
4.99451	0.238342	0.000915527	
4.9939	0.237732	-0.000305176	
4.99359	0.241394	0.000915527	
4.99359	0.242615	0	
4.9939	0.243225	0.000152588	
4.99084	0.24292	0.000762939	
4.98932	0.245667	0.0012207	
4.98901	0.248108	0.000762939	
4.98871	0.248108	0.000152588	
4.98901	0.248718	0	
4.98932	0.247498	0.00106812	
4.98901	0.249939	0.000305176	
4.98871	0.252686	0.000610352	
4.98901	0.252991	0.000610352	
4.98901	0.253601	0.000305176	
4.9881	0.252991	0.000457764	
4.98871	0.255737	0.000457764	
4.9884	0.257568	0.000457764	
4.98627	0.258179	0.000762939	
4.98474	0.258484	0.000457764	
4.98413	0.257568	0.00137329	
4.98383	0.257263	0.000457764	
4.98444	0.26062	0.00106812	
4.98413	0.261841	0.000152588	
4.98413	0.263062	0.000762939	
4.98383	0.262451	0	
4.98352	0.263062	-0.000457764	
4.98383	0.262756	0.000152588	
4.98383	0.265198	0.000152588	
4.98474	0.267029	-0.000915527	
4.98413	0.267944	0.000915527	
4.98108	0.267639	-0.000305176	
4.97955	0.267639	0.000762939	
4.97925	0.267639	0.000305176	
4.97833	0.267334	0.000762939	
4.97894	0.270386	0.000305176	
4.97925	0.272217	0.000305176	
4.97864	0.272522	0.000610352	
4.97925	0.272522	-0.000152588	
4.97864	0.272217	-0.0012207	
4.97925	0.272217	0.000762939	
4.97925	0.271912	-0.000152588	
4.97864	0.272217	0.000305176	
4.97925	0.272217	0.000152588	
4.97833	0.275269	0.000305176	
4.97589	0.27771	0.000915527	
4.97467	0.277405	0.00106812	
4.97375	0.277405	0.000762939	
4.97467	0.2771	0.000762939	
4.97345	0.2771	-0.000305176	
4.97437	0.278015	0.00137329	
4.97467	0.2771	0.000152588	
4.97467	0.278015	0.000610352	
4.97406	0.277405	0.000762939	
4.97406	0.280151	0.000915527	
4.97437	0.281677	0.000457764	
4.97437	0.283203	0.000305176	
4.97406	0.282593	0.000610352	
4.97375	0.283203	0.000610352	
4.9707	0.282593	0.000610352	
4.96948	0.281677	0.00152588	
4.96918	0.282593	-0.000152588	
4.96948	0.282593	0.0012207	
4.96948	0.282288	0.000305176	
4.96887	0.282593	0.000457764	
4.96918	0.281677	-0.000152588	
4.96948	0.282288	-0.000152588	
4.96918	0.281982	-0.000305176	
4.96979	0.282593	0	
4.96979	0.284729	-0.000457764	
4.96918	0.28656	0.00106812	
4.96826	0.28717	-0.000152588	
4.96979	0.287476	0.000762939	
4.96918	0.288086	0.000457764	
4.96643	0.287476	0.000457764	
4.9649	0.287781	0.000610352	
4.96429	0.287476	0.000305176	
4.96429	0.28717	0	
4.9646	0.28717	0.000152588	
4.9646	0.287781	-0.0012207	
4.9646	0.287476	0.000762939	
4.96429	0.286865	-0.000152588	
4.9646	0.287781	0.000305176	
4.9649	0.28717	0.000610352	
4.9649	0.287476	0	
4.9646	0.28717	0.000762939	
4.9649	0.28717	0.00167847	
4.9649	0.28717	0.0012207	
4.96429	0.28717	0.000915527	
4.96399	0.288086	0	
4.96155	0.287476	0.00152588	
4.95972	0.28717	0.000305176	
4.95941	0.28717	0.000610352	
4.95972	0.287476	0	
4.95941	0.286865	0.000457764	
4.95911	0.286865	0.000610352	
4.95941	0.287476	0.000457764	
4.95911	0.28717	0.000915527	
4.95941	0.28717	0.000305176	
4.95972	0.286865	0.000762939	
4.95911	0.287781	0.00137329	
4.9588	0.28656	0.000152588	
4.95941	0.28717	0.000915527	
4.95941	0.287476	0.000610352	
4.95911	0.287476	0.000152588	
4.95911	0.284424	0	
4.95605	0.282593	-0.000457764	
4.95422	0.282593	-0.000152588	
4.95392	0.282288	0.000457764	
4.95514	0.281982	-0.000610352	
4.95483	0.281982	0.00106812	
4.95392	0.282288	-0.000152588	
4.95453	0.282288	0.000762939	
4.95361	0.281982	0.000610352	
4.95422	0.282288	0.000457764	
4.95392	0.283203	0.000152588	
4.95483	0.282593	0.000457764	
4.95514	0.283508	0.000152588	
4.95514	0.281982	0	
4.95453	0.281982	-0.00137329	
4.95453	0.281982	0.000915527	
4.95422	0.282898	-0.000305176	
4.95483	0.280151	0.000457764	
4.95422	0.277405	0.000610352	
4.95117	0.2771	0.000305176	
4.94934	0.27771	0.000915527	
4.94934	0.277405	0.00106812	
4.94965	0.278015	0.0012207	
4.94995	0.2771	0.000915527	
4.94934	0.277405	-0.000457764	
4.94965	0.2771	0.00183105	
4.94934	0.277405	0.000305176	
4.94904	0.278015	0.000762939	
4.94995	0.275879	0.000457764	
4.94904	0.273132	0.000305176	
4.94995	0.273438	0.000152588	
4.94965	0.273132	0.000305176	
4.94934	0.272522	0.000457764	
4.94965	0.272827	0.000610352	
4.94965	0.272217	0.000457764	
4.94904	0.273132	0.00137329	
4.94965	0.272522	0.000152588	
4.94659	0.269775	0.00106812	
4.94507	0.267944	0.000457764	
4.94446	0.267639	0.000610352	
4.94415	0.267944	0.000152588	
4.94476	0.267029	-0.000305176	
4.94476	0.267334	0.000152588	
4.94415	0.267334	0.000152588	
4.94476	0.267334	-0.000915527	
4.94446	0.265198	0.00106812	
4.94446	0.262756	-0.000457764	
4.94507	0.263062	0.000915527	
4.94446	0.263062	0.000457764	
4.94537	0.262451	0.000152588	
4.94476	0.263062	0	
4.94476	0.262756	0.000152588	
4.94415	0.262756	0.000152588	
4.94415	0.259399	0	
4.94476	0.258789	-0.00152588	
4.94446	0.258179	0.000915527	
4.94415	0.257568	-0.000152588	
4.94446	0.257874	0.000610352	
4.94202	0.257568	0.000457764	
4.93988	0.255432	0.000305176	
4.93988	0.252991	0.000762939	
4.93927	0.253296	0.00167847	
4.93988	0.252686	0.000610352	
4.93927	0.252991	0.000915527	
4.93896	0.253601	0.000152588	
4.93896	0.252991	0.00137329	
4.93958	0.250244	0.000457764	
4.93927	0.249023	0.000915527	
4.93958	0.247803	0.000305176	
4.93988	0.247498	0.000305176	
4.93988	0.247803	0.000305176	
4.93988	0.248413	0.000457764	
4.93988	0.245361	0.000610352	
4.93927	0.24353	0.000762939	
4.93927	0.242615	0.000152588	
4.93958	0.243225	0.00152588	
4.93896	0.243225	0	
4.93896	0.242615	0.0012207	
4.93927	0.240479	0.000305176	
4.93866	0.238647	0.000457764	
4.93713	0.238037	0.000152588	
4.93408	0.237732	-0.000457764	
4.93408	0.237732	-0.000152588	
4.93469	0.237122	0.000152588	
4.93469	0.235291	-0.000610352	
4.93408	0.234375	0.000915527	
4.93469	0.233154	-0.000610352	
4.93439	0.233459	0.000915527	
4.93469	0.233459	0.000610352	
4.93439	0.231018	0.000152588	
4.93408	0.229492	0.000610352	
4.93439	0.228577	0.000305176	
4.935	0.229492	0.000152588	
4.93439	0.228271	0.000152588	
4.93469	0.22583	-0.0012207	
4.935	0.224609	0.000915527	
4.93469	0.223694	0	
4.935	0.223389	0.000610352	
4.93439	0.223999	0.000305176	
4.93439	0.223083	-0.000152588	
4.93439	0.220642	0.000915527	
4.93408	0.219116	0.00106812	
4.93469	0.218506	0.000915527	
4.93469	0.218201	0.000457764	
4.93408	0.218201	0	
4.93103	0.21637	0.00152588	
4.93042	0.214233	0.000305176	
4.93011	0.214233	0.00106812	
4.92981	0.213318	0.000457764	
4.93042	0.213318	0.000457764	
4.92981	0.211182	0.000305176	
4.92981	0.20874	0.000610352	
4.92981	0.209045	0.000305176	
4.92981	0.208435	0.000762939	
4.9295	0.20874	0.000152588	
4.93011	0.205994	0.00152588	
4.92981	0.203857	0.000610352	
4.92981	0.203552	0.00106812	
4.93042	0.204163	0.000457764	
4.93042	0.203552	0.000915527	
4.92981	0.2005	0	
4.93011	0.199585	-0.000457764	
4.93011	0.19928	-0.000152588	
4.93011	0.198975	0.000305176	
4.9295	0.198975	-0.000762939	
4.9292	0.196838	0.00106812	
4.9295	0.194397	-0.000152588	
4.92981	0.193787	0.000610352	
4.92889	0.194092	0.000457764	
4.92981	0.194092	0	
4.92981	0.19104	0.000152588	
4.93011	0.189514	0.000457764	
4.9295	0.188599	0.000305176	
4.92981	0.189209	0	
4.92645	0.189209	-0.00106812	
4.92523	0.186157	0.00106812	
4.92462	0.184326	0	
4.92554	0.184631	0.000305176	
4.92493	0.184326	0.000457764	
4.92493	0.183716	0.000305176	
4.92523	0.181274	0.00106812	
4.92462	0.179443	0.00106812	
4.92523	0.178833	0.000915527	
4.92462	0.179138	0.000762939	
4.92523	0.179749	-0.000152588	
4.92462	0.177002	0.00137329	
4.92432	0.174561	0.000305176	
4.92523	0.174561	0.000762939	
4.92493	0.174561	0.000152588	
4.92462	0.174561	0.000610352	
4.92493	0.172424	0.000457764	
4.92493	0.169983	0.000457764	
4.92523	0.169067	0.000457764	
4.92523	0.169373	0.000457764	
4.92462	0.168762	0.000457764	
4.92493	0.166931	0.00167847	
4.92523	0.1651	0	
4.92462	0.164185	0.0012207	
4.92432	0.16449	0.000457764	
4.92493	0.16449	0.000915527	
4.92432	0.161438	-0.000152588	
4.92493	0.160217	-0.000152588	
4.92462	0.159607	-0.000152588	
4.92493	0.158997	0.000457764	
4.92432	0.159607	-0.0012207	
4.92462	0.15686	0.000762939	
4.92493	0.155334	-0.000305176	
4.92493	0.155029	0.00106812	
4.92157	0.155029	0.000152588	
4.92096	0.155029	0.000305176	
4.92035	0.155029	0.000152588	
4.92035	0.152588	0.000305176	
4.92035	0.150146	0.000610352	
4.92004	0.150452	0	
4.91974	0.150146	-0.000915527	
4.92035	0.150452	0.0012207	
4.91974	0.14801	0	
4.91974	0.145874	0.000305176	
4.91974	0.145569	0.000610352	
4.92035	0.144958	0.000152588	
4.92035	0.144958	0.00106812	
4.91974	0.145264	0.000915527	
4.92035	0.142212	0.000610352	
4.91974	0.140381	0.000305176	
4.92004	0.140686	0.000152588	
4.92004	0.140381	0.0012207	
4.92004	0.140686	0.000457764	
4.91913	0.137329	0.000762939	
4.92004	0.135193	0.000305176	
4.91974	0.135803	0.000305176	
4.92035	0.134888	0.000762939	
4.92035	0.134583	0.000305176	
4.92004	0.135803	0.000457764	
4.91974	0.132141	0.000457764	
4.91974	0.130615	0.000305176	
4.92035	0.130005	0.00152588	
4.92004	0.1297	0.000152588	
4.92004	0.130615	0.00106812	
4.91974	0.130615	0.000305176	
4.92035	0.128479	0.000305176	
4.92065	0.125732	-0.000152588	
4.92004	0.124817	-0.000457764	
4.91974	0.125122	-0.000152588	
4.92035	0.125122	0.000305176	
4.92035	0.125122	-0.00106812	
4.91974	0.122681	0.000610352	
4.92035	0.12146	-0.000457764	
4.91974	0.12085	0.000762939	
4.92004	0.120544	0.000762939	
4.91974	0.12085	0.000305176	
4.92035	0.119934	0.000305176	
4.92004	0.117493	0.000457764	
4.91943	0.116272	0	
4.91699	0.115051	0.000152588	
4.91577	0.115662	-0.00152588	
4.91486	0.114746	0.0012207	
4.91547	0.115967	-0.000152588	
4.91547	0.113525	0.000305176	
4.91516	0.111084	0.000762939	
4.91516	0.110779	0.000152588	
4.91577	0.110779	0.000915527	
4.91455	0.110779	0.00152588	
4.91516	0.110779	0.000762939	
4.91516	0.111084	0.000457764	
4.91486	0.108337	-0.000152588	
4.91577	0.105286	0.0012207	
4.91547	0.105591	0.000305176	
4.91486	0.105286	0.000915527	
4.91608	0.105286	0.000152588	
4.91486	0.105591	0.000457764	
4.91516	0.105896	0.000305176	
4.91547	0.102844	0.000152588	
4.91516	0.101013	0.000457764	
4.91516	0.101318	0.000762939	
4.91486	0.100708	0.000305176	
4.91577	0.101318	0.00137329	
4.91486	0.101013	0.000305176	
4.91486	0.101013	0.00106812	
4.91547	0.0979614	0.000305176	
4.91516	0.0961304	0.000152588	
4.91577	0.0958252	0	
4.91547	0.09552	-0.000610352	
4.91455	0.0958252	0.000152588	
4.91486	0.0961304	0	
4.91516	0.0958252	-0.000762939	
4.91516	0.0961304	0.00106812	
4.91486	0.0939941	-0.000152588	
4.91516	0.0915527	0.000762939	
4.91486	0.0909424	0.000762939	
4.91486	0.0906372	0.000305176	
4.91486	0.0909424	0.000152588	
4.91516	0.0906372	0.000610352	
4.91547	0.0909424	0.000152588	
4.91486	0.0909424	0.000152588	
4.91547	0.088501	-0.00152588	
4.91486	0.0866699	0.00106812	
4.91455	0.0854492	-0.000152588	
4.91455	0.0860596	0.000610352	
4.91516	0.0860596	0.000762939	
4.91455	0.085144	0.000457764	
4.91516	0.0866699	0.000762939	
4.91577	0.0863647	0.00137329	
4.91577	0.0860596	0.000915527	
4.91486	0.0836182	0.000915527	
4.91486	0.0817871	-0.000305176	
4.91486	0.0811768	0.00152588	
4.91547	0.0808716	0.000457764	
4.91516	0.0814819	0.000305176	
4.91547	0.0817871	0.000457764	
4.91455	0.0811768	0.000305176	
4.91516	0.0811768	0.000305176	
4.91486	0.0811768	0.000152588	
4.91516	0.0796509	0.000762939	
4.91516	0.0772095	0.000457764	
4.91516	0.0772095	0	
4.91486	0.0765991	0.00137329	
4.91486	0.0775146	0.000305176	
4.91547	0.0775146	0.00137329	
4.91547	0.0772095	0.000610352	
4.91547	0.0765991	0.000610352	
4.91486	0.0772095	-0.000152588	
4.91486	0.0778198	-0.000762939	
4.91486	0.0747681	0.000305176	
4.91516	0.0726318	0.000305176	
4.91547	0.0720215	-0.000915527	
4.91516	0.0720215	0.000762939	
4.91455	0.0720215	-0.000305176	
4.91516	0.0726318	0.0012207	
4.91516	0.0726318	0.000610352	
4.9115	0.0723267	0.000305176	
4.91089	0.0723267	0.000152588	
4.91058	0.0720215	0.000457764	
4.91028	0.0720215	0	
4.90967	0.0717163	-0.000762939	
4.91058	0.0698853	0.000610352	
4.91058	0.0674438	0.000305176	
4.90997	0.0674438	-0.000152588	
4.90997	0.0674438	0.000762939	
4.90997	0.0671387	0	
4.90997	0.0668335	0.000305176	
4.90967	0.0671387	0.000915527	
4.90997	0.0671387	0.0012207	
4.91028	0.0671387	0.000457764	
4.91028	0.0668335	0	
4.90997	0.0674438	0.00152588	
4.90997	0.0646973	0.000762939	
4.91058	0.062561	0.000305176	
4.90997	0.0622559	0.00106812	
4.90997	0.0622559	0.000305176	
4.91028	0.0622559	0.000610352	
4.90997	0.0622559	0.000762939	
4.91028	0.0619507	0.000762939	
4.91028	0.0622559	0.000457764	
4.90997	0.0619507	-0.000305176	
4.90997	0.0622559	0.00198364	
4.91058	0.062561	0.000762939	
4.91028	0.0622559	-0.000152588	
4.91028	0.0619507	0.00106812	
4.90997	0.0634766	0.000610352	
4.90967	0.0592041	0.000305176	
4.90967	0.0576782	-0.000152588	
4.91028	0.0567627	-0.000305176	
4.90967	0.0567627	0.000152588	
4.91028	0.0576782	-0.000305176	
4.91028	0.0570679	0.000762939	
4.90997	0.0570679	-0.000152588	
4.91058	0.057373	-0.000305176	
4.90997	0.0576782	0.000610352	
4.91028	0.0579834	0.000610352	
4.90997	0.057373	0	
4.91058	0.0579834	0.000152588	
4.90997	0.0570679	0.000457764	
4.90997	0.057373	0.000305176	
4.91058	0.0567627	-0.000610352	
4.91058	0.057373	0.000305176	
4.90997	0.0546265	0.000305176	
4.91028	0.0524902	0.000152588	
4.91028	0.0524902	0.000457764	
4.91028	0.0521851	0.000152588	
4.91028	0.0524902	0	
4.90997	0.0527954	0.000915527	
4.91028	0.0527954	0.0012207	
4.91028	0.0524902	0.000915527	
4.91028	0.0515747	-0.000152588	
4.90967	0.0524902	0.00137329	
4.91058	0.0524902	0.000762939	
4.91028	0.0527954	0.000305176	
4.90967	0.0527954	0.000915527	
4.91089	0.0521851	0.000152588	
4.91089	0.0524902	0.000457764	
4.91028	0.0524902	0.000762939	
4.90936	0.0500488	0.000457764	
4.90997	0.0482178	0.000915527	
4.91028	0.0476074	-0.000305176	
4.90997	0.0473022	0.00198364	
4.91028	0.0469971	0.000610352	
4.91028	0.0473022	0.000305176	
4.90997	0.0473022	0.0012207	
4.91028	0.0476074	0.000762939	
4.90967	0.0476074	0.000305176	
4.90997	0.0476074	-0.000152588	
4.91028	0.0476074	-0.000457764	
4.90936	0.0476074	0.000305176	
4.91028	0.0473022	-0.000457764	
4.91028	0.0476074	0.0012207	
4.90997	0.0469971	0.000152588	
4.91028	0.0473022	0	
4.90997	0.0482178	0.000610352	
4.91028	0.0473022	0.000305176	
4.90997	0.0448608	0.000305176	
4.90997	0.0439453	0.000152588	
4.90997	0.0430298	0.000152588	
4.91028	0.0427246	-0.000152588	
4.90997	0.0430298	-0.000305176	
4.90997	0.0424194	0.000305176	
4.91089	0.0427246	-0.000152588	
4.91028	0.0430298	-0.000152588	
4.90967	0.0427246	0.000457764	
4.91058	0.0427246	0.000305176	
4.90997	0.0427246	0	
4.90967	0.043335	0.0012207	
4.90967	0.0424194	0.00137329	
4.90997	0.0427246	0.000457764	
4.91058	0.0424194	-0.000305176	
4.90967	0.0424194	0.00137329	
4.90997	0.0424194	0.000610352	
4.91028	0.0430298	0.000305176	
4.90936	0.0430298	0.000610352	
4.91028	0.039978	0.000152588	
4.91058	0.0384521	0.000457764	
4.91058	0.0375366	0.000457764	
4.91028	0.0375366	0.000457764	
4.91028	0.0372314	0.000305176	
4.91058	0.0372314	-0.000152588	
4.91028	0.038147	0.00167847	
4.90997	0.0375366	0.000610352	
4.91058	0.038147	0.000152588	
4.90967	0.0375366	0.0012207	
4.91028	0.0378418	0.000457764	
4.91028	0.038147	0.000762939	
4.90997	0.0372314	0	
4.90997	0.0375366	-0.000610352	
4.91028	0.0372314	0.000152588	
4.91028	0.038147	-0.000610352	
4.91058	0.0378418	0.000762939	
4.90997	0.0375366	0	
4.91058	0.0375366	-0.000305176	
4.91058	0.0354004	0.000610352	
4.90997	0.0335693	0.000610352	
4.90997	0.0326538	0	
4.90936	0.032959	0.000457764	
4.91058	0.032959	0.000305176	
4.91058	0.032959	0.000152588	
4.90997	0.0335693	-0.000610352	
4.91058	0.0323486	0.000457764	
4.91028	0.0326538	0	
4.91028	0.0323486	-0.000457764	
4.91333	0.0323486	0.000305176	
4.91394	0.0326538	0.000152588	
4.91486	0.0323486	0.000152588	
4.91516	0.0323486	0.000762939	
4.91516	0.0332642	0.00137329	
4.91547	0.0323486	0.000915527	
4.91516	0.032959	-0.000152588	
4.91547	0.032959	0.00152588	
4.91516	0.0335693	0.000457764	
4.91547	0.0305176	0.000610352	
4.91516	0.0286865	0.000610352	
4.91516	0.0280762	0	
4.91516	0.0274658	0.000457764	
4.91516	0.0280762	0.000457764	
4.91516	0.0274658	0.000152588	
4.91516	0.0280762	0.000610352	
4.91547	0.0280762	-0.000152588	
4.91516	0.0283813	0.00183105	
4.91455	0.027771	0.000152588	
4.91486	0.027771	0.000457764	
4.91486	0.0280762	0.000762939	
4.91486	0.0280762	0.000762939	
4.91547	0.0280762	0.000610352	
4.91577	0.0274658	0	
4.91516	0.027771	-0.000457764	
4.91547	0.027771	0.000152588	
4.91516	0.0283813	-0.000457764	
4.91516	0.0253296	0.00106812	
4.91516	0.0231934	0.000152588	
4.91486	0.0228882	-0.000152588	
4.91486	0.0222778	0.000610352	
4.91516	0.0228882	0.000915527	
4.91516	0.022583	0.000457764	
4.91547	0.0228882	0.000305176	
4.91516	0.0231934	0.000305176	
4.91486	0.0231934	0.000305176	
4.91547	0.0228882	-0.00106812	
4.91547	0.0231934	0.000457764	
4.91516	0.0228882	0.000305176	
4.91516	0.0231934	-0.000152588	
4.91486	0.0231934	0.000457764	
4.91486	0.0228882	0	
4.91516	0.0228882	0.000305176	
4.91516	0.0238037	0.0012207	
4.91516	0.0231934	0.0012207	
4.91516	0.0204468	0.000762939	
4.91516	0.0186157	-0.000610352	
4.91486	0.0186157	0.00137329	
4.91577	0.0180054	0.000762939	
4.91516	0.0186157	0.000152588	
4.91516	0.0186157	0.000762939	
4.91486	0.0180054	0.000152588	
4.91516	0.0186157	0.000762939	
4.91486	0.0183105	0.000305176	
4.91455	0.0183105	0.000152588	
4.91547	0.0177002	0.000457764	
4.91516	0.0177002	0	
4.91516	0.0180054	0.00167847	
4.91516	0.0183105	0.000762939	
4.91486	0.0186157	0	
4.91547	0.0177002	0.00106812	
4.91455	0.015564	0.000457764	
4.91516	0.0134277	0.000915527	
4.91455	0.0128174	-0.000152588	
4.91516	0.0137329	-0.000305176	
4.91547	0.0131226	0.000152588	
4.91455	0.0128174	-0.000610352	
4.91577	0.0128174	0.000915527	
4.91455	0.0134277	0.000152588	
4.91455	0.0131226	-0.000457764	
4.91486	0.0131226	0.000762939	
4.91516	0.0137329	0.000610352	
4.91516	0.0134277	0.000457764	
4.91486	0.0128174	0.000610352	
4.91425	0.0134277	0.000457764	
4.91547	0.0131226	-0.000152588	
4.91547	0.0134277	-0.000762939	
4.91577	0.0100708	0.000305176	
4.91516	0.00915527	0	
4.91821	0.00793457	-0.000152588	
4.91943	0.00854492	0.000457764	
4.92004	0.00823975	0.000457764	
4.91974	0.00854492	0.000152588	
4.91943	0.00823975	0.0012207	
4.92035	0.00823975	0.00106812	
4.92004	0.00854492	0.000762939	
4.91974	0.00793457	-0.000152588	
4.91974	0.00793457	0.00167847	
4.91943	0.00823975	0.000915527	
4.91974	0.00823975	0.000457764	
4.92004	0.0088501	0.000457764	
4.92035	0.00823975	0.000305176	
4.92004	0.00549316	0.000457764	
4.91974	0.00396729	0.000457764	
4.92004	0.00335693	0.000457764	
4.91943	0.00396729	0.000762939	
4.91974	0.00335693	0	
4.91974	0.00366211	0.00198364	
4.92035	0.00305176	0.000610352	
4.91974	0.00305176	0.000152588	
4.92004	0.00488281	0.00106812	
4.92065	0.00366211	0.000915527	
4.92035	0.00335693	0.000610352	
4.91974	0.00366211	-0.000152588	
4.91974	0.00335693	-0.000610352	
4.91943	0.00305176	0	
4.91943	0.00305176	-0.000305176	
4.92065	0.00335693	0.000610352	
4.92065	0.0012207	0.000152588	
4.92004	-0.000610352	-0.000152588	
4.92004	-0.000915527	0.000762939	
4.91974	-0.000915527	0.000457764	
4.91974	-0.00152588	0.000457764	
4.92035	-0.0012207	0.000457764	
4.92065	-0.000610352	0.000610352	
4.92035	-0.0012207	0.000152588	
4.91943	-0.0012207	-0.000610352	
4.91974	-0.000915527	0.000457764	
4.92004	-0.0012207	-0.000152588	
4.92004	-0.0012207	-0.000152588	
4.92004	-0.00152588	0.000457764	
4.91943	-0.0012207	0.000457764	
4.92004	-0.00396729	0.000152588	
4.91974	-0.00610352	0.00137329	
4.91974	-0.00640869	0.00137329	
4.92065	-0.00610352	0.000762939	
4.9231	-0.00610352	-0.000305176	
4.92401	-0.00579834	0.00152588	
4.92432	-0.00640869	0.000610352	
4.92462	-0.00610352	0.000457764	
4.92462	-0.00610352	0.000762939	
4.92493	-0.00610352	0.000305176	
4.92523	-0.00610352	0.000457764	
4.92493	-0.00640869	0.000305176	
4.92432	-0.00610352	0.000610352	
4.92462	-0.00610352	0.000762939	
4.92493	-0.00671387	0	
4.92462	-0.0088501	0.00183105	
4.92493	-0.010376	0.000915527	
4.92493	-0.0106812	-0.000152588	
4.92432	-0.0112915	0.00106812	
4.92432	-0.0106812	0.000457764	
4.92493	-0.0112915	0.000457764	
4.92493	-0.0109863	0	
4.92432	-0.0109863	-0.000457764	
4.92493	-0.0109863	0	
4.92462	-0.0109863	-0.000152588	
4.92432	-0.0106812	0.000762939	
4.92493	-0.0112915	0.000152588	
4.92401	-0.0115967	-0.000152588	
4.92462	-0.0119019	0.00106812	
4.92432	-0.0137329	0.000610352	
4.92493	-0.0152588	0.000152588	
4.92493	-0.0158691	0.000762939	
4.92554	-0.0158691	0.000152588	
4.92462	-0.0164795	0.000305176	
4.92462	-0.0164795	-0.000610352	
4.92493	-0.0158691	0.000915527	
4.92523	-0.0167847	0.000305176	
4.92493	-0.0164795	-0.000457764	
4.92462	-0.0161743	0.000610352	
4.92493	-0.015564	0.000305176	
4.92828	-0.0167847	-0.000152588	
4.9295	-0.0164795	0.000915527	
4.92981	-0.0189209	0.00137329	
4.92981	-0.0204468	0.000915527	
4.92981	-0.0213623	-0.000152588	
4.9295	-0.020752	0.00167847	
4.9292	-0.0210571	0.000762939	
4.9295	-0.020752	0.000152588	
4.92981	-0.0210571	0.000762939	
4.92981	-0.0216675	0.000610352	
4.9295	-0.020752	0.000762939	
4.92981	-0.0216675	0.000457764	
4.9295	-0.0213623	0.000457764	
4.93011	-0.0204468	0.000762939	
4.9295	-0.0213623	0.000152588	
4.92981	-0.0210571	0.00183105	
4.9295	-0.0238037	0.00106812	
4.9292	-0.0256348	0.000610352	
4.9295	-0.0262451	0.00106812	
4.93011	-0.0262451	0.000305176	
4.9295	-0.0265503	0	
4.9292	-0.0262451	0	
4.92981	-0.0262451	-0.000610352	
4.92981	-0.0256348	0.000305176	
4.9295	-0.0259399	-0.000457764	
4.93042	-0.0256348	0.000915527	
4.93042	-0.0253296	0.000305176	
4.9292	-0.0268555	-0.000457764	
4.9295	-0.0265503	0.000915527	
4.93225	-0.0289917	0.000610352	
4.93408	-0.0305176	0.000152588	
4.93469	-0.0305176	0.000305176	
4.93469	-0.0305176	0.000305176	
4.93439	-0.0314331	0.000152588	
4.93469	-0.0308228	-0.000762939	
4.93439	-0.0311279	0.000457764	
4.93469	-0.0311279	0.000152588	
4.93408	-0.0308228	-0.000305176	
4.93439	-0.0299072	0.000457764	
4.93439	-0.0311279	0.000305176	
4.93469	-0.0302124	0.000152588	
4.93469	-0.0302124	0.000915527	
4.93408	-0.0314331	0.00152588	
4.93439	-0.0332642	0.00106812	
4.93469	-0.0350952	-0.000457764	
4.9353	-0.0357056	0.00183105	
4.935	-0.0360107	0.000457764	
4.935	-0.0357056	0	
4.935	-0.03479	0.000915527	
4.93439	-0.0363159	0.000152588	
4.935	-0.0354004	0.000610352	
4.93439	-0.0357056	0.000305176	
4.93469	-0.0350952	0.000305176	
4.935	-0.0360107	0.000610352	
4.93866	-0.0354004	-0.000152588	
4.93896	-0.0360107	0.00167847	
4.93866	-0.03479	0.00106812	
4.93866	-0.038147	0.000305176	
4.93927	-0.039978	0.00106812	
4.93988	-0.0408936	0.00106812	
4.93927	-0.0405884	0.000610352	
4.93927	-0.0405884	-0.000152588	
4.93958	-0.0408936	-0.000762939	
4.93958	-0.0405884	0.000305176	
4.93958	-0.0408936	-0.000610352	
4.93988	-0.0405884	0.000915527	
4.93958	-0.0402832	-0.000152588	
4.93927	-0.0402832	-0.000152588	
4.94019	-0.0402832	0.000915527	
4.93866	-0.0408936	0.000610352	
4.93927	-0.0405884	0.000457764	
4.93927	-0.039978	0.000152588	
4.93988	-0.039978	0.000305176	
4.94019	-0.0427246	0.000152588	
4.93988	-0.045166	-0.000457764	
4.94019	-0.0457764	0.000762939	
4.94293	-0.0463867	0.000305176	
4.94385	-0.0457764	-0.000152588	
4.94476	-0.0448608	0.000762939	
4.94476	-0.0454712	0.000152588	
4.94446	-0.045166	0.000152588	
4.94507	-0.045166	0.00152588	
4.94476	-0.045166	0.00137329	
4.94446	-0.045166	0.000915527	
4.94476	-0.0457764	-0.000152588	
4.94415	-0.0460815	0.00167847	
4.94446	-0.045166	0.000915527	
4.94415	-0.0457764	0.000152588	
4.94385	-0.045166	0.000915527	
4.94476	-0.0448608	0	
4.94446	-0.0479126	0.000457764	
4.94415	-0.0500488	0.000610352	
4.94415	-0.0500488	0.000610352	
4.94476	-0.0506592	0.000762939	
4.94385	-0.0506592	-0.000152588	
4.94537	-0.050354	0.00167847	
4.94812	-0.050354	0.000457764	
4.94904	-0.0506592	0.000457764	
4.94904	-0.050354	0.000457764	
4.95026	-0.0500488	0.000762939	
4.94873	-0.0500488	0.000610352	
4.94904	-0.0506592	-0.000152588	
4.94965	-0.0500488	-0.000457764	
4.94995	-0.0506592	0.000457764	
4.94873	-0.050354	-0.000152588	
4.94934	-0.050354	0.00106812	
4.94965	-0.0512695	0.000152588	
4.94904	-0.0531006	0	
4.94934	-0.0552368	0.000762939	
4.94965	-0.0552368	0.000762939	
4.95209	-0.0552368	0.000305176	
4.95392	-0.0549316	0.000305176	
4.95392	-0.055542	0	
4.95422	-0.0558472	0.000610352	
4.95483	-0.0549316	-0.000610352	
4.95453	-0.0552368	0.000610352	
4.95453	-0.055542	0	
4.95422	-0.055542	0	
4.95453	-0.055542	-0.000305176	
4.95453	-0.0552368	0.000152588	
4.95422	-0.0558472	0	
4.95483	-0.0552368	0.0012207	
4.95422	-0.0552368	0.000762939	
4.95483	-0.0549316	0.00106812	
4.95483	-0.055542	-0.000305176	
4.95453	-0.0552368	0.00183105	
4.95422	-0.0576782	0.00106812	
4.95789	-0.0601196	0.000457764	
4.95972	-0.0604248	0.000762939	
4.9588	-0.06073	0.000152588	
4.95911	-0.0601196	0.000305176	
4.95911	-0.06073	0.000305176	
4.95941	-0.0604248	-0.000152588	
4.95972	-0.0604248	0.00106812	
4.95972	-0.0601196	0	
4.95911	-0.0604248	0.00183105	
4.95941	-0.0604248	0.000610352	
4.95911	-0.0601196	0.000762939	
4.95972	-0.0604248	0.000610352	
4.95911	-0.0601196	0.000457764	
4.95972	-0.0601196	0.000457764	
4.95972	-0.0601196	-0.000152588	
4.95941	-0.0604248	-0.000915527	
4.96246	-0.0601196	0.000152588	
4.96399	-0.0628662	-0.000610352	
4.9646	-0.0646973	0.0012207	
4.9646	-0.0656128	-0.000152588	
4.96399	-0.0653076	0.000305176	
4.96368	-0.0656128	0.000152588	
4.96429	-0.0650024	0.000457764	
4.9646	-0.0656128	0.000305176	
4.96429	-0.0653076	0.000305176	
4.9646	-0.0653076	0.000152588	
4.96399	-0.0650024	0.000305176	
4.96429	-0.0646973	-0.000610352	
4.9646	-0.0653076	0.000762939	
4.9646	-0.0656128	0.000305176	
4.9646	-0.0646973	0.000457764	
4.96765	-0.0653076	0	
4.96887	-0.0653076	0	
4.96857	-0.0646973	0	
4.96887	-0.0646973	0.0012207	
4.96918	-0.0653076	0.00106812	
4.96887	-0.0680542	0.00137329	
4.96948	-0.0695801	-0.000457764	
4.96979	-0.0698853	0.00152588	
4.96918	-0.0698853	0.000610352	
4.96887	-0.0695801	0.000457764	
4.96948	-0.0701904	0.000305176	
4.96948	-0.0701904	0.000152588	
4.96918	-0.0701904	0.000610352	
4.96979	-0.0704956	0.000762939	
4.97192	-0.0701904	0	
4.97375	-0.0704956	0.00106812	
4.97437	-0.071106	0	
4.97375	-0.0704956	0.00183105	
4.97437	-0.0698853	0.000762939	
4.97375	-0.0701904	0.000610352	
4.97437	-0.0698853	0.000762939	
4.97467	-0.0698853	0.000762939	
4.97406	-0.0692749	0.000305176	
4.97406	-0.0701904	-0.000152588	
4.97437	-0.072937	-0.00106812	
4.97406	-0.0747681	0.000762939	
4.97406	-0.0750732	-0.000305176	
4.97467	-0.0747681	0.000457764	
4.97742	-0.0750732	0.000457764	
4.97894	-0.0753784	0	
4.97864	-0.0747681	0.000610352	
4.97955	-0.0753784	0.000457764	
4.97925	-0.0750732	0.000305176	
4.97833	-0.0753784	0	
4.97894	-0.0753784	0	
4.97833	-0.0750732	0.000305176	
4.97833	-0.0750732	-0.000610352	
4.97894	-0.0747681	0.000457764	
4.97864	-0.0747681	0.000610352	
4.97894	-0.0753784	0.000457764	
4.97925	-0.0753784	0.000305176	
4.9826	-0.0753784	0	
4.98352	-0.0747681	0.000305176	
4.98413	-0.0778198	0.000762939	
4.98413	-0.0796509	0.0012207	
4.98413	-0.0793457	0.00106812	
4.98383	-0.0793457	-0.000152588	
4.98413	-0.0799561	0.00167847	
4.98444	-0.0790405	0.000610352	
4.98413	-0.0799561	0.000457764	
4.98413	-0.0796509	0.000457764	
4.98322	-0.0799561	0	
4.98444	-0.0802612	0.000610352	
4.98383	-0.0802612	0.000457764	
4.98718	-0.0796509	0	
4.98871	-0.0799561	0.00106812	
4.98871	-0.0793457	-0.000152588	
4.98932	-0.0796509	0.00183105	
4.98901	-0.0796509	0.000915527	
4.98871	-0.0799561	0.000457764	
4.98932	-0.0796509	0.000610352	
4.98901	-0.0790405	0.000610352	
4.9884	-0.0793457	0.000457764	
4.98932	-0.0827026	-0.000305176	
4.9884	-0.0848389	-0.000610352	
4.98901	-0.0848389	0.000305176	
4.99176	-0.0854492	-0.000305176	
4.99298	-0.0848389	0.000915527	
4.9942	-0.0839233	0.000305176	
4.9942	-0.085144	0.000457764	
4.99329	-0.0845337	0.000457764	
4.9939	-0.085144	0.000610352	
4.9939	-0.0848389	0.000305176	
4.9939	-0.0848389	0.000305176	
4.9942	-0.085144	0.000152588	
4.9939	-0.0842285	0.000457764	
4.9939	-0.085144	-0.000915527	
4.9942	-0.0848389	0.000457764	
4.99695	-0.0845337	0.000457764	
4.99847	-0.0845337	0	
4.99878	-0.0848389	0.000457764	
4.99939	-0.0842285	0	
4.99878	-0.0848389	0.000305176	
4.99908	-0.0869751	0.00106812	
4.99878	-0.0891113	0.0012207	
4.99908	-0.0897217	0.00106812	
4.99878	-0.0900269	0	
4.99878	-0.0897217	0.00167847	
4.99908	-0.0897217	0.000610352	
5.00214	-0.0894165	0.000610352	
5.00336	-0.0900269	0.000152588	
5.00427	-0.0900269	0.000152588	
5.00366	-0.0894165	0.000305176	
5.00336	-0.0897217	0.000457764	
5.00397	-0.0891113	0.000152588	
5.00366	-0.0894165	0.000915527	
5.00397	-0.0900269	0.000152588	
5.00397	-0.0900269	0.00167847	
5.00336	-0.0891113	0.00106812	
5.00427	-0.0894165	0.000457764	
5.00397	-0.0891113	0.000610352	
5.00671	-0.0894165	0.000762939	
5.00854	-0.0891113	0.000305176	
5.00824	-0.0897217	-0.000152588	
5.00885	-0.0897217	-0.000915527	
5.00854	-0.0924683	0.000305176	
5.00916	-0.093689	-0.000457764	
5.00885	-0.0946045	0.000915527	
5.00946	-0.0946045	0.000305176	
5.00885	-0.0942993	0.000152588	
5.00916	-0.0946045	0.000457764	
5.00916	-0.0946045	0.000610352	
5.0116	-0.0946045	0.000152588	
5.01373	-0.0952148	0.000152588	
5.01343	-0.0946045	0	
5.01373	-0.0949097	0.000305176	
5.01343	-0.0958252	-0.000610352	
5.01465	-0.0949097	0.000762939	
5.01373	-0.0952148	0.000610352	
5.01373	-0.0952148	0.000152588	
5.01404	-0.0939941	0	
5.01343	-0.0942993	0.000305176	
5.01434	-0.0949097	0.000457764	
5.01617	-0.0946045	0.00137329	
5.01801	-0.0949097	0.00137329	
5.01831	-0.0952148	0.0012207	
5.01831	-0.0949097	-0.000305176	
5.01892	-0.0942993	0.00167847	
5.01831	-0.0946045	0.000762939	
5.01831	-0.0967407	0.000762939	
5.01862	-0.098877	0.000457764	
5.01831	-0.0994873	0.000305176	
5.01831	-0.0991821	0.000762939	
5.02167	-0.0994873	0.000610352	
5.02319	-0.098877	0.000152588	
5.0238	-0.0991821	0.000305176	
5.02258	-0.0997925	0	
5.02258	-0.0994873	0.00152588	
5.02441	-0.0997925	0.000762939	
5.02289	-0.0997925	0.000457764	
5.0235	-0.0991821	0.000915527	
5.02319	-0.0994873	0.000762939	
5.0238	-0.0997925	0.000762939	
5.02319	-0.0991821	-0.000152588	
5.02289	-0.0985718	-0.000762939	
5.02258	-0.0997925	0	
5.02319	-0.0997925	0	
5.02686	-0.0991821	0.000762939	
5.02777	-0.0994873	0.000457764	
5.02808	-0.100098	0.000457764	
5.02838	-0.0997925	0.000305176	
5.02838	-0.0991821	0.000457764	
5.02838	-0.0994873	0.000457764	
5.02869	-0.0997925	0.000305176	
5.03143	-0.0994873	0.000610352	
5.03265	-0.0997925	0.000305176	
5.03357	-0.0994873	-0.000457764	
5.03296	-0.101929	0.000305176	
5.03326	-0.103455	0.000152588	
5.03357	-0.104675	0.000457764	
5.03387	-0.105286	0.000457764	
5.03265	-0.10437	0.000305176	
5.03296	-0.104675	0.000152588	
5.03357	-0.10437	0.0012207	
5.03662	-0.10376	0.0012207	
5.03815	-0.104065	0.000152588	
5.03845	-0.10498	0.000305176	
5.03845	-0.10437	0.00183105	
5.03815	-0.10498	0.000915527	
5.03845	-0.10376	0.000457764	
5.03815	-0.10437	0.000457764	
5.03845	-0.10437	0.000152588	
5.03845	-0.10437	0.000457764	
5.03906	-0.10437	0.000305176	
5.0415	-0.104065	0.000457764	
5.04272	-0.10437	0	
5.04333	-0.10437	0	
5.04303	-0.10437	0.00183105	
5.04272	-0.10498	0.000762939	
5.04303	-0.10437	0.000915527	
5.04303	-0.10437	0.00106812	
5.04333	-0.10437	0.000305176	
5.04364	-0.104065	0.000915527	
5.04333	-0.104675	-0.000305176	
5.04333	-0.10498	-0.000762939	
5.04333	-0.10437	0.000152588	
5.04639	-0.104675	-0.000152588	
5.04761	-0.10437	0.000762939	
5.04852	-0.10498	-0.000152588	
5.04883	-0.106506	0.000915527	
5.04822	-0.109253	0.000457764	
5.04822	-0.109253	0.000305176	
5.04883	-0.109863	0.000152588	
5.04822	-0.109253	0.000152588	
5.04761	-0.108948	0.000457764	
5.05127	-0.108643	0.000152588	
5.0528	-0.109253	-0.0012207	
5.05341	-0.108948	0.000762939	
5.0531	-0.109863	-0.000152588	
5.0531	-0.109253	0.000610352	
5.05341	-0.108948	0.000305176	
5.05371	-0.109863	0.000305176	
5.0531	-0.109863	0.000610352	
5.05341	-0.109253	0.00106812	
5.05676	-0.109253	0.00106812	
5.05737	-0.108948	0.000610352	
5.05829	-0.109253	-0.000152588	
5.05768	-0.109253	0.00167847	
5.05798	-0.108643	0.000152588	
5.05768	-0.108948	0.000915527	
5.05829	-0.109558	0.000152588	
5.05737	-0.108948	0.000305176	
5.05829	-0.109253	0.000610352	
5.06165	-0.109253	0.000610352	
5.06287	-0.109558	0.000305176	
5.06317	-0.109558	0.000457764	
5.06378	-0.109253	0.000152588	
5.06256	-0.108948	0.00167847	
5.06256	-0.108948	0.000305176	
5.06348	-0.108948	0.000915527	
5.06256	-0.109253	0.000457764	
5.06653	-0.109253	0.000457764	
5.06775	-0.111694	0.000305176	
5.06805	-0.114136	-0.000152588	
5.06805	-0.114136	-0.000305176	
5.06775	-0.114136	0	
5.06714	-0.114441	-0.000762939	
5.06744	-0.113831	0.000915527	
5.06744	-0.114441	-0.000305176	
5.07172	-0.114136	0.000610352	
5.07233	-0.114136	0.000305176	
5.07324	-0.113525	0.000305176	
5.07324	-0.114136	0.000152588	
5.07263	-0.114441	0.000610352	
5.07355	-0.114441	0.000305176	
5.07324	-0.114441	0.000152588	
5.07263	-0.113831	-0.00106812	
5.07324	-0.114441	0.000762939	
5.07568	-0.114136	0	
5.07782	-0.113831	0.000610352	
5.07843	-0.11322	0.000305176	
5.07751	-0.114136	0.000152588	
5.07843	-0.114441	0.000610352	
5.07751	-0.114136	0.00106812	
5.07813	-0.114136	0.00137329	
5.07813	-0.114441	0.000610352	
5.08057	-0.113831	-0.000152588	
5.08148	-0.113525	0.00183105	
5.08209	-0.114441	0.000762939	
5.08209	-0.114136	0.000915527	
5.08179	-0.114441	0.000610352	
5.0824	-0.114441	0.000457764	
5.08179	-0.113831	0.000457764	
5.0827	-0.114136	0.000457764	
5.08484	-0.114441	0.000610352	
5.08667	-0.114441	0.000762939	
5.08698	-0.114746	0	
5.08667	-0.114441	0.00167847	
5.08698	-0.117493	0	
5.08698	-0.119019	0.00106812	
5.08667	-0.118713	0.000457764	
5.09003	-0.119019	0.00106812	
5.09125	-0.118103	0.000762939	
5.09216	-0.119324	-0.000610352	
5.09186	-0.119629	-0.000610352	
5.09186	-0.119324	0	
5.09186	-0.119324	-0.000762939	
5.09216	-0.118713	0.000915527	
5.09186	-0.118713	-0.000152588	
5.09552	-0.119324	0.000457764	
5.09644	-0.119934	0.000762939	
5.09705	-0.119629	0.000762939	
5.09674	-0.119324	0.000305176	
5.09644	-0.119019	0.000152588	
5.09644	-0.119934	0.000610352	
5.09583	-0.118713	0	
5.09735	-0.119019	-0.000457764	
5.09979	-0.118408	0.000762939	
5.10162	-0.119324	0.000305176	
5.10223	-0.119934	0.000457764	
5.10254	-0.119324	0.000152588	
5.10498	-0.119324	0	
5.10651	-0.119629	0.000457764	
5.10712	-0.119019	0.00106812	
5.10681	-0.119019	0.00152588	
5.10681	-0.119019	0.000152588	
5.10681	-0.119629	0.000305176	
5.10651	-0.118713	0.00152588	
5.10681	-0.119324	0.000762939	
5.11017	-0.119324	0.000305176	
5.11108	-0.119629	0.000305176	
5.112	-0.119019	0.000152588	
5.1123	-0.118713	0.000457764	
5.11108	-0.118713	0.000457764	
5.11139	-0.119019	0.000457764	
5.1123	-0.119934	0.000305176	
5.11505	-0.119324	0.000305176	
5.11658	-0.118713	0.00167847	
5.11658	-0.12207	0.000305176	
5.11719	-0.123596	0.000762939	
5.11719	-0.123901	0.000762939	
5.11719	-0.123596	0.000610352	
5.11658	-0.123596	0.000610352	
5.11963	-0.123596	-0.000152588	
5.12146	-0.123596	-0.000305176	
5.12146	-0.124207	-0.000152588	
5.12177	-0.123901	-0.000305176	
5.12207	-0.124817	0.00106812	
5.12207	-0.124207	0.000305176	
5.12207	-0.123596	0.000305176	
5.12451	-0.124817	0	
5.12604	-0.123901	0.000610352	
5.12665	-0.124207	0.000152588	
5.12726	-0.124207	0.000305176	
5.12604	-0.123596	0.000457764	
5.12665	-0.124207	0	
5.12665	-0.124512	-0.000305176	
5.13	-0.123596	0.000762939	
5.13092	-0.124512	0.000457764	
5.13184	-0.123596	0.000152588	
5.13092	-0.124207	0.000457764	
5.13123	-0.124207	0.000152588	
5.13123	-0.123291	0	
5.13245	-0.123291	0.00106812	
5.13458	-0.123596	0.0012207	
5.13611	-0.123901	0.000305176	
5.13672	-0.124207	0	
5.13672	-0.124512	0.00183105	
5.13702	-0.124207	0.000610352	
5.13672	-0.123901	0.000762939	
5.13672	-0.123596	0.000457764	
5.13916	-0.123901	0	
5.1416	-0.123901	0.000762939	
5.1413	-0.123901	0.000610352	
5.1413	-0.123901	0.000457764	
5.1413	-0.123596	0.000610352	
5.1413	-0.124207	-0.000152588	
5.14099	-0.124207	0.00167847	
5.14099	-0.123901	0.000305176	
5.14099	-0.123596	0.000762939	
5.1416	-0.124207	0.000610352	
5.14099	-0.124207	0.000915527	
5.14099	-0.124207	0.000305176	
5.14099	-0.123901	-0.000152588	
5.14099	-0.123901	-0.000152588	
5.1413	-0.124512	0.000610352	
5.1413	-0.124512	-0.000762939	
5.1416	-0.124207	0.000915527	
5.1416	-0.124512	0.000152588	
5.14191	-0.124207	0.000305176	
5.1474	-0.124207	0.000610352	
5.15137	-0.124207	0.000457764	
5.15076	-0.124512	0	
5.15137	-0.123901	0.000457764	
5.15442	-0.124512	0.000457764	
5.15533	-0.123901	0	
5.15656	-0.124817	-0.000457764	
5.15625	-0.124512	0.000762939	
5.15594	-0.124512	0	
5.15594	-0.124207	0.000457764	
5.15594	-0.124207	0.000152588	
5.15991	-0.124512	0.000457764	
5.16113	-0.124817	0.000457764	
5.16144	-0.124207	0.00137329	
5.16113	-0.123901	0.00137329	
5.16174	-0.124512	0.000915527	
5.16144	-0.123901	0	
5.16418	-0.124512	0.00198364	
5.16602	-0.124512	0.000305176	
5.16571	-0.124207	0.000915527	
5.16602	-0.124207	0.000457764	
5.16693	-0.123901	0.000305176	
5.16541	-0.124207	0.000457764	
5.16602	-0.123596	0.000610352	
5.16876	-0.124817	0.000305176	
5.1709	-0.123901	0.000457764	
5.1712	-0.124207	0	
5.1712	-0.124512	0.00183105	
5.1709	-0.124207	0.000152588	
5.17151	-0.124207	0.000610352	
5.1712	-0.121765	0.000762939	
5.17059	-0.119324	0.00106812	
5.1709	-0.119019	0.000762939	
5.1709	-0.119324	0.000152588	
5.17731	-0.118408	-0.000305176	
5.18005	-0.119019	0.000305176	
5.18097	-0.119324	-0.000762939	
5.18402	-0.119324	0.000610352	
5.18585	-0.119629	0.000305176	
5.18555	-0.119019	0.000152588	
5.18555	-0.119019	0.000610352	
5.18585	-0.119019	0.000457764	
5.18555	-0.119324	-0.000152588	
5.18921	-0.119019	0.000610352	
5.19012	-0.119629	0.000305176	
5.19012	-0.119019	0.000152588	
5.19104	-0.119019	-0.000610352	
5.19073	-0.119019	0.00106812	
5.19104	-0.119019	0.000305176	
5.19409	-0.116272	0.000152588	
5.19592	-0.114746	0.000305176	
5.19562	-0.114136	0	
5.19623	-0.114441	0	
5.19592	-0.113831	0.00183105	
5.19623	-0.114441	0.00152588	
5.19897	-0.113831	0.000915527	
5.2002	-0.114746	-0.000152588	
5.20111	-0.114136	0.00137329	
5.2005	-0.113831	0.000762939	
5.2005	-0.113831	0.000915527	
5.2005	-0.114136	0.000152588	
5.20355	-0.111084	0.000305176	
5.20477	-0.109863	0.000152588	
5.20599	-0.108948	0.0012207	
5.20538	-0.108948	0.000457764	
5.20508	-0.109863	0.000762939	
5.20599	-0.110168	0	
5.20844	-0.108643	0.00183105	
5.21027	-0.109253	0.000915527	
5.20996	-0.109253	0.000610352	
5.21027	-0.107117	0.000610352	
5.21057	-0.104675	0.000762939	
5.21088	-0.10498	-0.000152588	
5.21332	-0.104675	0	
5.21515	-0.10437	-0.000305176	
5.21515	-0.104065	0.000305176	
5.21515	-0.10437	-0.000610352	
5.21545	-0.104675	0.00106812	
5.21576	-0.101318	0.000152588	
5.21851	-0.0997925	0.000305176	
5.22034	-0.0991821	0.000457764	
5.22064	-0.0997925	0.000762939	
5.22034	-0.0994873	0	
5.22003	-0.0994873	0.000610352	
5.22095	-0.0991821	0.000457764	
5.22339	-0.0970459	0.000152588	
5.22461	-0.0952148	-0.00106812	
5.22552	-0.0946045	0.000915527	
5.22583	-0.0949097	0.000152588	
5.22522	-0.0949097	0.000305176	
5.22797	-0.0942993	0.000152588	
5.22919	-0.0915527	0.000305176	
5.2301	-0.090332	0.000152588	
5.2301	-0.0894165	0.00137329	
5.2301	-0.0897217	0.00137329	
5.23102	-0.0891113	0.000762939	
5.23346	-0.0897217	-0.000457764	
5.23438	-0.0869751	0.00198364	
5.23468	-0.085144	0.000610352	
5.2356	-0.0845337	0.000305176	
5.23529	-0.0848389	0.000305176	
5.23834	-0.0845337	0.000152588	
5.23956	-0.0823975	0.000457764	
5.23987	-0.0793457	0.000762939	
5.24017	-0.0793457	0.000305176	
5.24017	-0.0799561	0.000610352	
5.23987	-0.0787354	0.000305176	
5.24353	-0.0769043	0.00152588	
5.24475	-0.0747681	0.000610352	
5.24536	-0.0750732	0.000457764	
5.24445	-0.0750732	0.000457764	
5.24567	-0.0750732	0.000610352	
5.2478	-0.0726318	0	
5.24902	-0.0704956	-0.000610352	
5.24994	-0.0704956	-0.000457764	
5.24963	-0.0692749	0.000457764	
5.24933	-0.0674438	-0.000457764	
5.24963	-0.0650024	0.00106812	
5.24963	-0.0653076	0.000457764	
5.24933	-0.0653076	0.000305176	
5.25238	-0.062561	0.000457764	
5.25452	-0.06073	0.000305176	
5.25604	-0.06073	0.000457764	
5.25421	-0.06073	0.000457764	
5.25482	-0.0576782	0.000305176	
5.25757	-0.0558472	0.000305176	
5.2594	-0.055542	-0.00106812	
5.2594	-0.0552368	0.000915527	
5.26062	-0.0527954	0.000152588	
5.26031	-0.0509644	0	
5.26276	-0.050354	0.000610352	
5.26428	-0.0500488	-0.000152588	
5.26398	-0.0476074	0.000305176	
5.26428	-0.0460815	0.00106812	
5.26459	-0.0448608	0.0012207	
5.26764	-0.043335	0.00137329	
5.26917	-0.0405884	-0.000152588	
5.26978	-0.0408936	0.00152588	
5.26978	-0.0405884	0.000762939	
5.26947	-0.0378418	0.000610352	
5.26978	-0.0363159	0.000152588	
5.27222	-0.0357056	0.000457764	
5.27374	-0.032959	0.000457764	
5.27496	-0.0311279	0.000305176	
5.27405	-0.0308228	0	
5.27435	-0.0280762	0.000915527	
5.2771	-0.0262451	0	
5.27985	-0.0259399	0.00183105	
5.27893	-0.0228882	0.000915527	
5.27954	-0.0213623	0.000305176	
5.27924	-0.0210571	0.000762939	
5.28259	-0.0204468	0.000762939	
5.28442	-0.0183105	0.000457764	
5.28381	-0.0164795	-0.000457764	
5.28442	-0.0161743	-0.000762939	
5.28473	-0.0137329	0.000457764	
5.28809	-0.012207	-0.000610352	
5.28961	-0.0112915	0.0012207	
5.28931	-0.00854492	0.000305176	
5.28931	-0.00610352	0	
5.28961	-0.00610352	0.000457764	
5.29297	-0.00366211	0.000305176	
5.29327	-0.00152588	0	
5.29449	-0.0012207	0.000305176	
5.29388	0.000915527	0.000152588	
5.29388	0.00305176	0.000152588	
5.29449	0.00366211	-0.0012207	
5.29388	0.00610352	0.000915527	
5.29388	0.00793457	0	
5.29419	0.00823975	0.000305176	
5.2948	0.0115967	0.000457764	
5.29724	0.0131226	0.000305176	
5.29846	0.015564	0.000152588	
5.29938	0.0177002	0.000762939	
5.29938	0.0183105	0.00137329	
5.29938	0.0213623	0.00106812	
5.30212	0.0231934	-0.000457764	
5.30396	0.022583	0.00167847	
5.30518	0.0256348	0.000457764	
5.30426	0.0274658	-0.000152588	
5.30457	0.0280762	0.000915527	
5.30762	0.0305176	0.000457764	
5.30884	0.0320435	0.000457764	
5.30975	0.0357056	0.000305176	
5.30884	0.0375366	0.000457764	
5.30945	0.0375366	0.000610352	
5.31281	0.0408936	0.000152588	
5.31342	0.0424194	0.00152588	
5.31372	0.0427246	0.000610352	
5.31403	0.045166	0.000305176	
5.31647	0.0473022	0.000915527	
5.31891	0.0494385	0.000457764	
5.31891	0.0521851	0.000610352	
5.31921	0.0527954	-0.000152588	
5.31921	0.0552368	-0.000152588	
5.32196	0.0564575	0.000152588	
5.32318	0.057373	-0.000610352	
5.3241	0.06073	0.000762939	
5.32379	0.0622559	0.000305176	
5.32501	0.0646973	-0.000305176	
5.32715	0.0671387	0.000457764	
5.32837	0.0674438	0.000305176	
5.32806	0.0695801	0.000457764	
5.32928	0.0720215	0.000915527	
5.33478	0.0726318	0.000305176	
5.33752	0.0750732	0	
5.33875	0.0765991	-0.000762939	
5.3418	0.0796509	0.000762939	
5.34332	0.0799561	0.000152588	
5.34302	0.0805664	0	
5.34363	0.0836182	0.000305176	
5.34302	0.085144	0.000152588	
5.34637	0.0881958	0.000152588	
5.3479	0.0906372	0.0012207	
5.34821	0.0909424	0.00137329	
5.34882	0.0939941	0.00137329	
5.34851	0.09552	0.000152588	
5.34882	0.0958252	0.00167847	
5.35126	0.098877	0.000762939	
5.35339	0.100403	0.000762939	
5.35431	0.103455	0.000457764	
5.35339	0.105591	0.000305176	
5.35339	0.105591	0.000610352	
5.35675	0.108643	0.000305176	
5.35828	0.109863	0	
5.35889	0.113525	0.00106812	
5.35858	0.115662	-0.000152588	
5.35858	0.115662	0.00152588	
5.36102	0.118103	0.000915527	
5.36377	0.120239	0.000305176	
5.36346	0.12085	0.000762939	
5.36346	0.122986	0.000762939	
5.36682	0.125122	0.000305176	
5.36804	0.128784	-0.000305176	
5.36804	0.1297	-0.000610352	
5.36835	0.130005	0.000305176	
5.36774	0.133057	-0.000762939	
5.36804	0.135193	0.00106812	
5.36835	0.135193	-0.000152588	
5.36804	0.137939	0.000610352	
5.36896	0.139465	0.000305176	
5.37201	0.142822	0.000457764	
5.37201	0.144653	0.000305176	
5.37262	0.144958	0.000305176	
5.37354	0.14801	0.000457764	
5.37659	0.149536	0.000152588	
5.37781	0.149841	-0.00106812	
5.37781	0.151978	0.0012207	
5.37872	0.154114	0	
5.38147	0.154724	0.000762939	
5.3833	0.156555	0.000457764	
5.383	0.158997	-0.000152588	
5.383	0.161438	0.000457764	
5.3833	0.16449	0.00106812	
5.38635	0.16449	0.00106812	
5.38696	0.166321	0.000457764	
5.38818	0.169067	-0.000305176	
5.38818	0.169373	0.00167847	
5.39063	0.173035	-0.000152588	
5.39215	0.17395	0.000915527	
5.39276	0.174561	0.000457764	
5.39276	0.176392	0.000610352	
5.39276	0.178833	0.000610352	
5.39551	0.179443	0.000457764	
5.39764	0.18158	0.000457764	
5.39764	0.183105	0.00106812	
5.39795	0.184021	0	
5.4007	0.187378	0.00183105	
5.40222	0.189209	0.000457764	
5.40253	0.188904	0.0012207	
5.40314	0.192261	0.000457764	
5.40588	0.193481	0.000457764	
5.40741	0.196533	0.000762939	
5.40741	0.198059	0	
5.4071	0.198975	-0.000610352	
5.4071	0.198669	0.000152588	
5.41107	0.201721	-0.000915527	
5.41168	0.204468	0.00106812	
5.41321	0.203857	-0.000152588	
5.41229	0.206604	0.000610352	
5.41504	0.20813	0.000152588	
5.41718	0.207825	0.000457764	
5.41748	0.211487	0.000152588	
5.41748	0.213013	0.000457764	
5.42084	0.213318	0.000457764	
5.42175	0.21637	0	
5.42206	0.218201	-0.000915527	
5.42236	0.217896	0.000915527	
5.42572	0.220642	-0.000305176	
5.42694	0.223083	0.000610352	
5.42755	0.223083	0	
5.42816	0.223694	0.000152588	
5.4306	0.226135	0.000152588	
5.43243	0.227966	0.0012207	
5.43213	0.228577	0.00137329	
5.43213	0.231628	0.000915527	
5.43243	0.233459	-0.000305176	
5.43579	0.233459	0.00183105	
5.43671	0.233459	-0.000152588	
5.43701	0.236206	0.000915527	
5.43762	0.238342	0.000610352	
5.44037	0.238647	0.000152588	
5.44159	0.241699	0.000610352	
5.44159	0.242615	0.000762939	
5.4425	0.24292	0.000152588	
5.44525	0.243225	0.000762939	
5.44647	0.245361	0	
5.44739	0.247498	0.00198364	
5.44769	0.248108	0.000305176	
5.44952	0.248108	0.00106812	
5.45197	0.250549	0.000457764	
5.45288	0.25238	0.000915527	
5.45258	0.252991	0.000305176	
5.45532	0.25238	-0.000152588	
5.45685	0.255432	-0.000152588	
5.45746	0.257568	0.000152588	
5.45746	0.258179	-0.000915527	
5.46021	0.257568	0.000915527	
5.46143	0.260925	-0.000305176	
5.46234	0.261841	0.000762939	
5.46234	0.263062	0.000457764	
5.46509	0.262146	0.000305176	
5.46661	0.265198	0.000457764	
5.46631	0.266418	0.000152588	
5.46753	0.267639	0.000152588	
5.46967	0.267639	-0.000152588	
5.47089	0.267944	-0.00137329	
5.47119	0.270386	0.000915527	
5.47211	0.271912	-0.000305176	
5.47485	0.272827	0.000305176	
5.47607	0.271912	0.000305176	
5.47668	0.272522	0.000305176	
5.47668	0.275269	0.000152588	
5.47974	0.2771	0.00152588	
5.48187	0.27771	0.00152588	
5.48187	0.277405	0.000457764	
5.48187	0.27771	0	
5.48523	0.280457	0.00152588	
5.48645	0.282288	-0.000152588	
5.48645	0.281677	0.00106812	
5.48706	0.282288	0.000915527	
5.48981	0.281677	0.000305176	
5.49133	0.283203	0.000457764	
5.49103	0.285339	0.000305176	
5.49194	0.287476	0.000152588	
5.49469	0.287781	0.000762939	
5.49591	0.286865	0.000152588	
5.49713	0.287476	0.00183105	
5.49866	0.28717	-0.000152588	
5.50079	0.290222	0.000915527	
5.50171	0.291748	0.000762939	
5.5011	0.291748	0.000915527	
5.50476	0.293274	0.000305176	
5.50659	0.292358	-0.000457764	
5.50659	0.292053	-0.000610352	
5.50659	0.291748	0.000152588	
5.50903	0.295105	-0.000610352	
5.51025	0.296936	0.00106812	
5.51117	0.297241	-0.000305176	
5.51086	0.297241	0.000762939	
5.51483	0.296631	0.000610352	
5.51605	0.298157	0.000457764	
5.51636	0.296631	0.000457764	
5.51697	0.299683	0.000152588	
5.51971	0.301208	0.000457764	
5.52032	0.301514	-0.000152588	
5.52124	0.302734	-0.0012207	
5.52368	0.302734	0.00106812	
5.52582	0.302429	-0.000152588	
5.52582	0.301819	0.000610352	
5.52521	0.301208	0.000152588	
5.52948	0.302429	0	
5.53131	0.302124	0.000305176	
5.53101	0.305176	0.0012207	
5.53101	0.306091	0.00137329	
5.53406	0.307617	0.000152588	
5.53619	0.307312	-0.000152588	
5.53558	0.307312	0.00183105	
5.53619	0.306702	0.000305176	
5.53986	0.306702	0.000915527	
5.54077	0.307922	0.000457764	
5.54077	0.307007	0.000152588	
5.54352	0.307312	0.000762939	
5.54565	0.306702	0.000457764	
5.54535	0.306702	0.000457764	
5.54596	0.307617	0.000915527	
5.54871	0.307312	0.000457764	
5.54993	0.309448	0.00152588	
5.55084	0.31189	0.000152588	
5.55084	0.312195	0.0012207	
5.55359	0.312195	0.000610352	
5.55542	0.3125	0.000457764	
5.55603	0.312195	0.000610352	
5.55908	0.31189	-0.000305176	
5.56	0.31189	-0.000457764	
5.5603	0.311279	-0.000152588	
5.5603	0.31189	-0.000915527	
5.56274	0.31189	0.000610352	
5.56427	0.312195	0	
5.56519	0.3125	0.000305176	
5.56549	0.310974	0.000610352	
5.56915	0.31189	0.000305176	
5.56976	0.311584	0.000152588	
5.57037	0.311584	0.000457764	
5.57343	0.312195	0.000610352	
5.57526	0.31189	0.000152588	
5.57495	0.310974	-0.00106812	
5.57556	0.31189	0.000915527	
5.57831	0.311279	-0.000152588	
5.57953	0.311279	0.000762939	
5.58105	0.312195	0.000305176	
5.58319	0.311584	0.000152588	
5.58533	0.312195	0.000457764	
5.58563	0.311584	0.00106812	
5.58533	0.311584	0.00152588	
5.58838	0.311584	0.000457764	
5.5899	0.31189	-0.000152588	
5.5899	0.31189	0.00183105	
5.59387	0.31189	0.000152588	
5.59509	0.31189	0.00106812	
5.5957	0.312195	0.000305176	
5.59479	0.311279	0.000152588	
5.59784	0.31189	0.000610352	
5.59906	0.311584	0.000305176	
5.60028	0.311584	0.000305176	
5.59998	0.312195	0.000610352	
5.60303	0.312195	0	
5.60394	0.312195	0.00152588	
5.60486	0.311279	0.000305176	
5.6076	0.310059	0.0012207	
5.60974	0.307617	0.000610352	
5.61035	0.307007	0.000762939	
5.61127	0.306702	0.000457764	
5.61279	0.307007	-0.000305176	
5.61371	0.307312	-0.000457764	
5.61493	0.306091	0.000152588	
5.61798	0.307007	-0.000915527	
5.61951	0.306396	0.000915527	
5.6192	0.307007	0	
5.62012	0.307007	0.000915527	
5.62286	0.306702	0.000305176	
5.62408	0.306702	0.000305176	
5.625	0.307007	0.000305176	
5.62744	0.304565	0.000305176	
5.62836	0.30304	0.000305176	
5.62958	0.30304	-0.000152588	
5.63324	0.301819	-0.00167847	
5.63385	0.302124	0.000610352	
5.63446	0.302124	-0.000305176	
5.63507	0.301819	0.000762939	
5.63843	0.301819	0.000152588	
5.63873	0.301819	0.000152588	
5.63995	0.302429	0.000762939	
5.64301	0.302734	0.00167847	
5.64514	0.299988	0.00106812	
5.64453	0.297241	0.000762939	
5.64484	0.297546	0.000152588	
5.64758	0.297241	0.00167847	
5.64941	0.297241	0.000305176	
5.64972	0.297852	0.00106812	
5.65277	0.296936	0.000610352	
5.65369	0.297852	0.000152588	
5.65491	0.294189	0.000915527	
5.65765	0.292969	0.000305176	
5.65826	0.292969	0.000152588	
5.65948	0.292053	0.000762939	
5.65948	0.292358	0.000305176	
5.66254	0.292358	0.00167847	
5.66437	0.292053	0.000457764	
5.66437	0.292358	0.000915527	
5.66742	0.290222	0.000762939	
5.66864	0.288086	0.00106812	
5.66864	0.286865	0.000457764	
5.66986	0.286865	-0.000457764	
5.67169	0.28717	-0.000305176	
5.67444	0.287476	0.000305176	
5.67474	0.287476	-0.000305176	
5.67749	0.284729	0.00106812	
5.6781	0.282898	-0.000152588	
5.67932	0.282593	0.000762939	
5.68207	0.282898	0.000305176	
5.68268	0.282288	0.000305176	
5.68359	0.282288	0.000305176	
5.6842	0.279541	0.000457764	
5.68665	0.277405	0.000305176	
5.68848	0.2771	-0.000152588	
5.68909	0.276794	-0.00137329	
5.69214	0.277405	0.000457764	
5.69336	0.278015	-0.000152588	
5.69427	0.274963	0.000305176	
5.69672	0.272827	0.000152588	
5.69916	0.271912	0	
5.69855	0.272217	0.000305176	
5.69916	0.272522	0.00137329	
5.7016	0.272827	0.00106812	
5.70251	0.269775	0.000457764	
5.70343	0.267944	-0.000152588	
5.7074	0.267639	0.00198364	
5.7077	0.267639	0.000152588	
5.70953	0.267639	0.000915527	
5.71075	0.265198	0.000457764	
5.7132	0.263062	0.000457764	
5.7135	0.263062	0.000457764	
5.71625	0.262756	0.000305176	
5.71777	0.263062	0.000305176	
5.71838	0.260315	0.000762939	
5.71869	0.257874	0.000152588	
5.72144	0.257568	0.00183105	
5.72266	0.258179	0.000305176	
5.72327	0.257263	0.00106812	
5.72601	0.258789	0.000762939	
5.72784	0.256042	0.000915527	
5.72815	0.253601	0.000305176	
5.7312	0.252075	-0.000305176	
5.73273	0.25238	-0.000305176	
5.73273	0.249939	-0.000152588	
5.73578	0.248718	-0.000762939	
5.73792	0.248413	0.000915527	
5.73761	0.248108	-0.000152588	
5.73822	0.248108	0.000762939	
5.74066	0.245056	0.000152588	
5.7431	0.24292	0.000457764	
5.7431	0.24292	0.000152588	
5.74585	0.24292	0.000762939	
5.74738	0.243225	0	
5.7486	0.240784	0.000152588	
5.75134	0.238342	-0.00106812	
5.75256	0.238647	0.00106812	
5.75317	0.238037	-0.000305176	
5.75653	0.236206	0.000457764	
5.75775	0.234375	0.000457764	
5.75806	0.233459	0.000152588	
5.76111	0.233459	0.000457764	
5.76294	0.233459	0.00152588	
5.76294	0.231323	0.0012207	
5.76324	0.229492	0.000915527	
5.7663	0.228577	-0.000305176	
5.76721	0.228577	0.00167847	
5.76813	0.225525	0	
5.77026	0.224609	0.000915527	
5.77209	0.223694	0.000457764	
5.77271	0.223083	0.000305176	
5.77576	0.223694	0.000305176	
5.77759	0.220642	0.000457764	
5.7782	0.219116	0.000457764	
5.78003	0.219116	0.000610352	
5.78217	0.218506	0.000305176	
5.78247	0.216675	0.00213623	
5.78552	0.213928	0	
5.78674	0.213928	0.000915527	
5.78796	0.213623	0.000610352	
5.7901	0.210876	0.000915527	
5.79193	0.209351	0.000305176	
5.79285	0.208435	-0.000457764	
5.79529	0.209351	-0.000610352	
5.79712	0.206299	0	
5.79773	0.203857	-0.000457764	
5.79742	0.204163	0.000915527	
5.80048	0.203552	0	
5.802	0.204468	0.000915527	
5.80261	0.201416	0.000610352	
5.80597	0.198669	0.000457764	
5.80627	0.198669	0	
5.80719	0.19928	0.000610352	
5.81055	0.196533	0.000305176	
5.81177	0.194397	0.000305176	
5.81177	0.193481	-0.00137329	
5.81512	0.194092	0.0012207	
5.81696	0.191345	-0.000457764	
5.81726	0.189819	0.000305176	
5.82031	0.189209	0.000305176	
5.82214	0.188599	0.000457764	
5.82245	0.186157	0.000762939	
5.8252	0.184326	0.00137329	
