model_ppg1.acq
0.5 msec/sample
3 channels
RSP, X, RSPEC-R
Volts
PPG, X, PPGED-R
Volts
ECG, Y, RSPEC-R
mV
CH1	CH2	CH13	
242344	242344	242344	
5.64606	0.915222	0.000762939	
5.64758	0.913086	0.000152588	
5.64972	0.910645	0.000152588	
5.64911	0.908203	-0.000152588	
5.65002	0.905151	0.000152588	
5.64911	0.904541	0.000305176	
5.64911	0.901184	0.000152588	
5.64911	0.900574	0	
5.64941	0.898132	0.000305176	
5.65063	0.895691	0.0012207	
5.65308	0.893555	0.0012207	
5.6543	0.891724	0.000762939	
5.65399	0.888367	0.000457764	
5.65491	0.88623	0.000457764	
5.6546	0.883484	0.000457764	
5.6543	0.881958	0.000762939	
5.65399	0.879517	0.000152588	
5.6546	0.87677	0.000610352	
5.65521	0.873718	0.000610352	
5.65826	0.870972	0.000457764	
5.65948	0.86853	0.000305176	
5.65948	0.867004	0.000457764	
5.65918	0.863647	0.000610352	
5.65948	0.861816	0.000915527	
5.65948	0.859375	0.000610352	
5.65918	0.857239	0.000457764	
5.65918	0.854492	0.000457764	
5.6604	0.852051	0.000457764	
5.66284	0.848999	0.000610352	
5.66345	0.847168	-0.000457764	
5.66467	0.844116	-0.000152588	
5.66437	0.840149	-0.000305176	
5.66467	0.836792	0.000457764	
5.66467	0.834351	0	
5.66376	0.83252	0.000305176	
5.66528	0.830078	0.000305176	
5.66803	0.826721	0.000457764	
5.66925	0.823975	0.000610352	
5.66925	0.819702	0.000457764	
5.66925	0.817871	0.000457764	
5.66986	0.814819	0.000457764	
5.66895	0.812683	0	
5.66864	0.810242	0.000152588	
5.67017	0.805664	-0.000152588	
5.67261	0.802917	0.000152588	
5.67383	0.799866	0.000305176	
5.67413	0.795288	-0.000152588	
5.67444	0.793152	0	
5.67413	0.78949	0.000152588	
5.67352	0.787964	0.000762939	
5.67505	0.785522	0.0012207	
5.67749	0.781555	0.000762939	
5.67902	0.778503	0.000762939	
5.67902	0.775452	0.000610352	
5.67902	0.77179	0.00106812	
5.67902	0.768738	0.000457764	
5.67871	0.765381	0	
5.67902	0.760803	0	
5.67932	0.758667	0.000305176	
5.68359	0.756226	0.000457764	
5.6839	0.751343	0.000152588	
5.68359	0.74707	0.000457764	
5.68359	0.744324	0.000610352	
5.68359	0.741577	0.00106812	
5.6842	0.736694	0.000915527	
5.68481	0.734253	0.000305176	
5.68817	0.730896	0.000762939	
5.68848	0.727234	0.000305176	
5.68787	0.723572	0.000457764	
5.68787	0.722351	-0.000152588	
5.68848	0.717163	-0.000457764	
5.68939	0.71228	0.000305176	
5.69	0.709839	0.000457764	
5.69214	0.706482	-0.000152588	
5.69336	0.702209	0	
5.69458	0.697327	0.000305176	
5.69397	0.69519	0.000762939	
5.69427	0.692444	0.000610352	
5.69519	0.688477	0.000457764	
5.69702	0.684509	0.000305176	
5.69824	0.681763	0.000457764	
5.69855	0.678101	0	
5.69855	0.673218	-0.000152588	
5.69855	0.670166	-0.000152588	
5.69946	0.667419	0	
5.69977	0.663757	0.000762939	
5.70282	0.657959	0.000305176	
5.70313	0.653687	0.000457764	
5.70313	0.65033	0.000152588	
5.70343	0.647583	0.000915527	
5.70343	0.643311	0.00152588	
5.70496	0.639038	0.000457764	
5.7077	0.635681	0.000305176	
5.70831	0.632935	0.000457764	
5.70862	0.628662	0.000762939	
5.70801	0.623779	0.000762939	
5.70831	0.621643	0.000610352	
5.70923	0.618896	0.000152588	
5.71198	0.614319	0.000762939	
5.71289	0.609436	0.000457764	
5.7135	0.604248	0.000305176	
5.7132	0.602112	0.000457764	
5.7135	0.598145	0.000305176	
5.71472	0.594482	0.00106812	
5.71777	0.59021	0.000762939	
5.71808	0.585327	0.000762939	
5.71808	0.582581	0.000762939	
5.71808	0.578918	0.000457764	
5.71838	0.574646	0.000457764	
5.71899	0.569763	-0.000305176	
5.72266	0.564575	-0.000305176	
5.72266	0.562439	-0.000152588	
5.72327	0.559692	0.000305176	
5.72296	0.55481	0.000305176	
5.72296	0.550537	0.000305176	
5.72418	0.545349	0.000305176	
5.72693	0.542908	0.000610352	
5.72784	0.539856	0.000610352	
5.72754	0.535278	0.000457764	
5.72876	0.531311	0.000457764	
5.72784	0.526123	0.000610352	
5.72937	0.523071	0.000457764	
5.73181	0.52063	0	
5.73242	0.516052	-0.000305176	
5.73273	0.510559	0.000152588	
5.73303	0.505981	0.000152588	
5.73242	0.50354	0.000152588	
5.73425	0.501099	0.000457764	
5.737	0.496521	0.000152588	
5.7373	0.491943	0.000610352	
5.73853	0.487061	0.00167847	
5.73853	0.484314	0.000762939	
5.73914	0.481262	0.000762939	
5.74219	0.47699	0.000457764	
5.74249	0.471802	0.000457764	
5.74341	0.467529	0.00106812	
5.74341	0.462341	0	
5.7431	0.4599	0.000152588	
5.74432	0.456543	0.000457764	
5.74738	0.452271	0.000305176	
5.74768	0.447388	0.000305176	
5.7486	0.443115	0.000305176	
5.74768	0.440369	0.000457764	
5.7486	0.437317	0.000915527	
5.75165	0.43335	0.000610352	
5.75317	0.428162	0.000457764	
5.75317	0.423584	0.00106812	
5.75287	0.420227	0.000457764	
5.7547	0.417786	0.000457764	
5.75684	0.412903	-0.000152588	
5.75775	0.408325	-0.000610352	
5.75806	0.403442	0	
5.75775	0.398254	0.000305176	
5.75745	0.396118	0.000152588	
5.75897	0.393066	0.000305176	
5.76141	0.388794	0.000152588	
5.76294	0.384521	0.000915527	
5.76294	0.379028	0.000915527	
5.76263	0.376587	0.000152588	
5.76416	0.37384	0.000305176	
5.7666	0.368652	0.000610352	
5.76752	0.364075	0.000305176	
5.76752	0.359497	0.000457764	
5.76752	0.35675	-0.000152588	
5.76843	0.353088	0.000152588	
5.77118	0.349426	0.000457764	
5.77179	0.344849	0.000305176	
5.77209	0.339966	0.000457764	
5.77271	0.337219	0.000152588	
5.77362	0.334167	0.000915527	
5.77606	0.329895	0.00137329	
5.77759	0.325012	0.000762939	
5.77789	0.321655	0.000152588	
5.77759	0.319519	0.000457764	
5.7785	0.314941	0.000915527	
5.78064	0.310364	0.000762939	
5.78247	0.304871	0.000305176	
5.78247	0.302734	0.000457764	
5.78278	0.299683	0.000457764	
5.78308	0.295715	0.000305176	
5.78644	0.291443	0.000152588	
5.78735	0.288391	0.000457764	
5.78766	0.285034	0.000610352	
5.78705	0.281372	0.0012207	
5.78827	0.276184	0.000610352	
5.79163	0.271606	0.000457764	
5.79193	0.26886	0.000762939	
5.79193	0.265503	0.000152588	
5.79254	0.261841	0.000915527	
5.79346	0.255127	0	
5.7959	0.253296	-0.000457764	
5.79681	0.251465	0	
5.79712	0.246277	0.000152588	
5.79712	0.241699	0	
5.79834	0.238953	0.000152588	
5.80109	0.236816	0.000305176	
5.802	0.231934	0.000610352	
5.802	0.227356	0.000610352	
5.80322	0.223999	0.000305176	
5.80627	0.222168	0.000305176	
5.80719	0.21698	0.000457764	
5.80719	0.212097	0	
5.80658	0.209045	0.000305176	
5.80811	0.206604	-0.000152588	
5.81055	0.202026	0.000305176	
5.81177	0.200195	0.000152588	
5.81207	0.197144	0	
5.81238	0.192566	0.000762939	
5.8136	0.187683	0.000305176	
5.81482	0.184937	0.000762939	
5.81726	0.18219	0.00152588	
5.81757	0.178528	0.0012207	
5.81665	0.174866	0.000457764	
5.81787	0.172424	0.000762939	
5.82123	0.167542	0.000152588	
5.82214	0.163574	0.000762939	
5.82184	0.160522	0.000305176	
5.82275	0.158081	0.000152588	
5.82611	0.153809	0.000152588	
5.82672	0.150757	0.000457764	
5.82703	0.147705	0.000457764	
5.82672	0.143738	0.000457764	
5.82794	0.140686	0.000305176	
5.83069	0.13855	0.000762939	
5.8313	0.133972	0.000305176	
5.83221	0.13092	0.000457764	
5.83282	0.129089	0.000610352	
5.83679	0.124207	0.000152588	
5.83679	0.12146	0	
5.83679	0.118713	-0.000305176	
5.83679	0.114136	-0.000610352	
5.83771	0.111084	-0.000457764	
5.84076	0.108643	0.000152588	
5.84137	0.10376	0	
5.84137	0.101318	0.000457764	
5.84167	0.098877	0.000152588	
5.84259	0.0946045	0.000457764	
5.84564	0.0918579	0.000610352	
5.84625	0.0894165	0.000610352	
5.84656	0.0845337	0.000457764	
5.84808	0.0830078	0.000305176	
5.85114	0.0796509	0.000152588	
5.85144	0.0762939	0.000762939	
5.85114	0.072937	-0.000457764	
5.85144	0.0701904	0.000610352	
5.85236	0.0674438	0.000305176	
5.8551	0.0650024	0.000152588	
5.85632	0.0610352	0.000457764	
5.85632	0.0576782	0.000610352	
5.85754	0.055542	0.000762939	
5.85999	0.0531006	0.00106812	
5.86121	0.0506592	0.000762939	
5.8609	0.0463867	0.000610352	
5.86029	0.043335	0.000457764	
5.86212	0.0405884	0.000610352	
5.86456	0.0390625	0.00106812	
5.86578	0.0357056	0.000457764	
5.86578	0.0320435	0.000152588	
5.86792	0.0286865	0.000457764	
5.87006	0.0262451	0.000152588	
5.87158	0.0244141	0.000152588	
5.87158	0.0213623	0.000305176	
5.87189	0.0167847	0.000762939	
5.87463	0.0140381	0.000610352	
5.87585	0.0109863	0.000457764	
5.87555	0.00915527	0.000610352	
5.87646	0.00579834	0.000305176	
5.87677	0.00366211	0.000457764	
5.87952	0.000610352	0.000610352	
5.88013	-0.000915527	0	
5.88074	-0.00305176	-0.000152588	
5.88165	-0.00793457	-0.000152588	
5.8844	-0.010376	0.000457764	
5.88623	-0.0131226	0	
5.88623	-0.0152588	0.000152588	
5.88593	-0.0180054	-0.000152588	
5.88684	-0.0198364	0.000457764	
5.88989	-0.022583	0.000457764	
5.89081	-0.0250244	0.000305176	
5.89111	-0.0283813	0.000457764	
5.89203	-0.0289917	0.000457764	
5.89447	-0.0326538	0.000152588	
5.896	-0.03479	0.000457764	
5.89569	-0.038147	-0.000305176	
5.8963	-0.0393677	0	
5.89996	-0.0424194	0.000152588	
5.90057	-0.0445557	0	
5.90057	-0.0476074	0.000457764	
5.90179	-0.0497437	0.000457764	
5.90454	-0.0521851	0.000915527	
5.90576	-0.0543213	0.0012207	
5.90546	-0.057373	0.000762939	
5.90454	-0.0592041	0.000305176	
5.90668	-0.062561	0.000762939	
5.90942	-0.0640869	0.000610352	
5.91095	-0.0671387	0.000762939	
5.91064	-0.0692749	0.000305176	
5.91187	-0.0717163	0.000457764	
5.91461	-0.0741577	0.000457764	
5.91583	-0.0769043	0.000305176	
5.91553	-0.0787354	0.000457764	
5.91614	-0.0814819	0.000152588	
5.91949	-0.0839233	0.000152588	
5.9201	-0.0866699	0.000915527	
5.92072	-0.0891113	0.000915527	
5.9201	-0.0912476	0.000457764	
5.92163	-0.093689	0.000457764	
5.92438	-0.0946045	0.000305176	
5.92529	-0.0967407	0.000610352	
5.9256	-0.098877	0	
5.92621	-0.101318	-0.000457764	
5.92957	-0.10376	-0.000152588	
5.92987	-0.105896	0.000457764	
5.93048	-0.109253	0	
5.93201	-0.109558	0.000915527	
5.93475	-0.111389	0.000152588	
5.93536	-0.11322	0.000610352	
5.93628	-0.115967	0.000457764	
5.93689	-0.118713	0.000610352	
5.93964	-0.121155	0.000305176	
5.93994	-0.123291	0.000457764	
5.94055	-0.124207	0.000610352	
5.94086	-0.125732	0.000457764	
5.9436	-0.127869	-0.000305176	
5.94452	-0.130615	0.000305176	
5.94452	-0.133057	0.000152588	
5.94543	-0.133972	0.000457764	
5.94574	-0.135803	0.000610352	
5.9494	-0.137939	0.000457764	
5.95062	-0.140686	0.000762939	
5.9494	-0.143127	0.00106812	
5.95123	-0.143738	0.000915527	
5.95398	-0.145569	0.000305176	
5.95459	-0.14801	0.000457764	
5.95551	-0.148315	0.000457764	
5.95642	-0.150452	0.000762939	
5.95886	-0.152893	0.000305176	
5.96008	-0.152893	0.000457764	
5.96039	-0.156555	0.000610352	
5.96069	-0.158081	0.000305176	
5.96405	-0.159912	0.000457764	
5.96527	-0.162048	0.000610352	
5.96558	-0.162964	0.000610352	
5.9668	-0.164795	0.000762939	
5.96802	-0.166931	0.000610352	
5.97015	-0.167542	0.000305176	
5.96954	-0.169678	0.000610352	
5.97137	-0.172424	0.000152588	
5.97412	-0.172119	0.000610352	
5.97534	-0.174561	0	
5.97504	-0.177002	-0.000152588	
5.97595	-0.178223	-0.000305176	
5.97839	-0.179749	0.000305176	
5.97931	-0.1828	-0.000152588	
5.97992	-0.183411	0.000457764	
5.98022	-0.184326	0.000305176	
5.98083	-0.186768	0.000457764	
5.98358	-0.187073	0.000610352	
5.9848	-0.189209	0.000305176	
5.98511	-0.191345	0.000305176	
5.98602	-0.191956	0.000457764	
5.98846	-0.194702	0.000305176	
5.98907	-0.196838	-0.000152588	
5.98907	-0.197754	-0.000305176	
5.99121	-0.197754	0.000457764	
5.99335	-0.19989	0	
5.99457	-0.201721	0.000305176	
5.99457	-0.202332	0.000305176	
5.99487	-0.204468	0	
5.99884	-0.206299	0.000762939	
5.99976	-0.206909	0.0012207	
6.00006	-0.206604	0.0012207	
6.00037	-0.209656	0.000305176	
6.00342	-0.211792	0.000762939	
6.00372	-0.212097	0.000305176	
6.00433	-0.214539	0.000610352	
6.00586	-0.216064	0.000152588	
6.008	-0.216675	0.000152588	
6.0083	-0.216675	0.000305176	
6.00922	-0.219116	0.000305176	
6.01105	-0.221252	0.000457764	
6.01227	-0.221558	0.000152588	
6.01349	-0.220947	0.000457764	
6.0144	-0.223999	0.000915527	
6.01563	-0.22644	0.000762939	
6.01746	-0.22644	0.000762939	
6.01837	-0.22644	0.000457764	
6.01898	-0.229187	0.000457764	
6.01959	-0.230713	0.000457764	
6.02264	-0.231628	0	
6.02417	-0.231934	-0.000457764	
6.02386	-0.233154	0	
6.02509	-0.236206	0.000457764	
6.02753	-0.236206	-0.000152588	
6.02875	-0.236206	0.000610352	
6.02936	-0.239258	0.000305176	
6.03058	-0.240173	0.000457764	
6.03271	-0.241394	0.000457764	
6.03302	-0.241394	0.000610352	
6.03424	-0.243225	0.000762939	
6.03516	-0.245667	0.000457764	
6.0376	-0.246277	0.000457764	
6.03851	-0.246277	0.000610352	
6.03912	-0.246887	-0.000305176	
6.04065	-0.248108	0.000457764	
6.04279	-0.250549	0.000152588	
6.0434	-0.251465	0.000152588	
6.04401	-0.250854	0.000457764	
6.04492	-0.253296	0	
6.04797	-0.255127	0.000457764	
6.04858	-0.255737	0.00152588	
6.04889	-0.255737	0.000915527	
6.0498	-0.256653	0.000305176	
6.05255	-0.258179	0.000610352	
6.05377	-0.260315	0.000762939	
6.05377	-0.260925	0.000610352	
6.05469	-0.260925	0.000457764	
6.05743	-0.260925	0.000305176	
6.05804	-0.263672	0.000457764	
6.05865	-0.265198	0.000457764	
6.05957	-0.265808	0.000305176	
6.06232	-0.266113	0.000610352	
6.06354	-0.265808	0.000457764	
6.06354	-0.26825	0.00137329	
6.06415	-0.270081	0.000762939	
6.0675	-0.270691	0.000457764	
6.06842	-0.270386	0.000152588	
6.06873	-0.270996	0.000305176	
6.06964	-0.270996	0.000610352	
6.07269	-0.273132	-0.000152588	
6.0733	-0.275269	-0.000305176	
6.07391	-0.275574	-0.000457764	
6.07483	-0.275574	0.000457764	
6.07758	-0.275879	-0.000152588	
6.07819	-0.278625	0.000305176	
6.07849	-0.280151	0.000610352	
6.07941	-0.280457	0.000762939	
6.08276	-0.280457	0.000457764	
6.08276	-0.280457	0.000152588	
6.08368	-0.280762	0.000457764	
6.08368	-0.282898	0.000305176	
6.08398	-0.284424	0.000152588	
6.08704	-0.285645	0	
6.08795	-0.285034	0	
6.08795	-0.285339	0.000305176	
6.08948	-0.28595	0.000305176	
6.09192	-0.288086	0.000305176	
6.09283	-0.289612	0.000457764	
6.09375	-0.290222	0.000305176	
6.09436	-0.289917	0.000762939	
6.09741	-0.289917	0.00106812	
6.09833	-0.290833	0.00106812	
6.09802	-0.291138	0.000610352	
6.09955	-0.292664	0.000610352	
6.10199	-0.2948	0.000610352	
6.10291	-0.29541	0.000305176	
6.10291	-0.29541	0.000152588	
6.10382	-0.295105	0.000152588	
6.10687	-0.29541	0.000152588	
6.1084	-0.297241	0.000762939	
6.1087	-0.299683	0.000305176	
6.10931	-0.300598	0.000305176	
6.11206	-0.300293	0.000457764	
6.11389	-0.299988	0.000762939	
6.11267	-0.299988	0.000457764	
6.1142	-0.300598	0.000305176	
6.11725	-0.302429	0.000305176	
6.11786	-0.304565	0.000457764	
6.11877	-0.305176	0.000915527	
6.11908	-0.305176	0.000152588	
6.12183	-0.304871	-0.000762939	
6.12305	-0.305481	0	
6.12305	-0.305481	0.000610352	
6.12457	-0.307312	0.000152588	
6.12671	-0.309753	0.000457764	
6.12701	-0.310059	0.000610352	
6.12793	-0.310059	0.000305176	
6.12946	-0.310364	0.000610352	
6.1319	-0.310059	0.000305176	
6.13251	-0.309448	0	
6.13281	-0.312195	0.000305176	
6.13434	-0.314331	0.000457764	
6.13708	-0.314331	0.000305176	
6.13647	-0.314636	-0.000457764	
6.1377	-0.315247	0.000457764	
6.13953	-0.314636	0.000152588	
6.14227	-0.314636	0.000152588	
6.14197	-0.317383	0.000610352	
6.14258	-0.319519	0	
6.1438	-0.318909	0.000762939	
6.14594	-0.319519	0.00106812	
6.14746	-0.319214	0.0012207	
6.14746	-0.319824	0.000610352	
6.14899	-0.319214	0.000610352	
6.15112	-0.319519	0.000610352	
6.15173	-0.32135	0.000457764	
6.15295	-0.324402	0.000305176	
6.15448	-0.324097	0.000457764	
6.15631	-0.324707	0.000152588	
6.15723	-0.324707	0.000457764	
6.15723	-0.324707	0	
6.15845	-0.324402	0.000457764	
6.16089	-0.326843	0.000457764	
6.16211	-0.328674	0.00106812	
6.16211	-0.328979	0.000762939	
6.16364	-0.3302	0.000457764	
6.16638	-0.32959	0.000610352	
6.16669	-0.329895	0.000457764	
6.1673	-0.329285	0.000457764	
6.16821	-0.32959	-0.000152588	
6.17126	-0.331421	-0.000305176	
6.17218	-0.334167	-0.000152588	
6.17188	-0.334778	0.000305176	
6.17249	-0.334778	0.000305176	
6.17584	-0.334473	0	
6.17737	-0.334473	0.000305176	
6.17615	-0.334473	0.000610352	
6.17737	-0.335999	0.000305176	
6.18073	-0.338745	0.000610352	
6.18103	-0.33905	0.000305176	
6.18195	-0.339355	0.000610352	
6.18256	-0.33905	0.000152588	
6.1853	-0.339661	0.000152588	
6.18622	-0.339661	-0.000152588	
6.18683	-0.33905	0.000152588	
6.18774	-0.341187	0.000457764	
6.19141	-0.343323	0.000457764	
6.19141	-0.344849	0.000457764	
6.19171	-0.343933	0.000457764	
6.19354	-0.343933	0.00106812	
6.19507	-0.343933	0.00106812	
6.19659	-0.344238	0.000762939	
6.1972	-0.344238	0.000152588	
6.19751	-0.34668	0.000457764	
6.20056	-0.348511	0.000762939	
6.20148	-0.348816	0.000762939	
6.20239	-0.348816	0.000152588	
6.20331	-0.349121	0.000457764	
6.20483	-0.349731	0	
6.20667	-0.349121	0.000762939	
6.20667	-0.349426	0.000305176	
6.20758	-0.350342	0.000762939	
6.21094	-0.354004	0.000305176	
6.21155	-0.354309	0.00106812	
6.21124	-0.354309	0.000610352	
6.21277	-0.354004	0.000915527	
6.21521	-0.354004	0.000915527	
6.21674	-0.353699	0.000457764	
6.21765	-0.355835	0.000762939	
6.21735	-0.357666	0.000305176	
6.2204	-0.359497	-0.000610352	
6.22162	-0.359802	-0.000305176	
6.22162	-0.358887	0.000457764	
6.22162	-0.358582	0.000152588	
6.22223	-0.358887	0.000305176	
6.22559	-0.359802	0	
6.2265	-0.361023	0.000762939	
6.2262	-0.36377	0.000305176	
6.22681	-0.36377	0.000457764	
6.23016	-0.36438	0.000152588	
6.23138	-0.36377	0.000762939	
6.23169	-0.364685	0.000305176	
6.2326	-0.36377	0.000152588	
6.23535	-0.36438	-0.000305176	
6.23657	-0.366821	0.000152588	
6.23566	-0.367432	0.000457764	
6.23749	-0.368652	0.000305176	
6.24023	-0.368652	0	
6.24054	-0.368958	0.000305176	
6.24176	-0.368652	0.000610352	
6.24268	-0.368958	0.00137329	
6.24481	-0.370789	0.000915527	
6.24603	-0.372925	0.000610352	
6.24573	-0.374146	0.000305176	
6.24725	-0.37384	0.000305176	
6.25	-0.373535	0.000915527	
6.25092	-0.374146	0.000457764	
6.25122	-0.374756	0.000152588	
6.25244	-0.37384	0.000152588	
6.25519	-0.375671	0.000457764	
6.2558	-0.378418	0.000152588	
6.2558	-0.378723	0.000152588	
6.25671	-0.379028	0.000762939	
6.25732	-0.378113	0.0012207	
6.25946	-0.379028	0.000610352	
6.26099	-0.378418	0.000762939	
6.26129	-0.380554	0.000610352	
6.2616	-0.382996	0.000305176	
6.26526	-0.383301	0.000305176	
6.26556	-0.384216	0.000457764	
6.26587	-0.383606	-0.000762939	
6.26678	-0.383606	-0.000305176	
6.26984	-0.382996	0.000305176	
6.27045	-0.384216	0	
6.27075	-0.386353	0.000152588	
6.27258	-0.388184	-0.000152588	
6.27472	-0.387878	0.000610352	
6.27594	-0.388794	0.000762939	
6.27655	-0.388794	0.000610352	
6.27747	-0.388794	0.000457764	
6.27991	-0.388489	0.000305176	
6.28082	-0.390625	0.000152588	
6.28113	-0.392456	-0.000152588	
6.28174	-0.393066	-0.000305176	
6.28448	-0.393066	0.000305176	
6.2851	-0.393066	0.000305176	
6.2854	-0.393066	0.000152588	
6.28601	-0.393066	0.000305176	
6.28754	-0.395508	0	
6.28937	-0.397339	0.000457764	
6.29028	-0.397644	0.00137329	
6.29059	-0.397949	0.0012207	
6.29211	-0.397949	0.000610352	
6.29395	-0.398254	0.000305176	
6.29517	-0.398254	0.000762939	
6.29547	-0.398254	0.000762939	
6.2973	-0.39978	0.000152588	
6.29974	-0.402527	0.000305176	
6.30035	-0.403137	0.000610352	
6.30066	-0.402832	0.000610352	
6.30157	-0.403137	0.000152588	
6.30432	-0.403442	0	
6.30554	-0.402832	0.000610352	
6.30524	-0.405579	0.00106812	
6.30554	-0.40802	0.000457764	
6.30707	-0.40802	0.000305176	
6.30981	-0.40802	0.000915527	
6.31073	-0.407715	0.000610352	
6.30981	-0.40863	0.000762939	
6.31195	-0.40802	0.000610352	
6.31378	-0.410156	-0.000457764	
6.31561	-0.411377	0	
6.315	-0.412903	0	
6.31622	-0.413208	0	
6.31958	-0.413208	0.000305176	
6.31989	-0.413208	0	
6.32019	-0.413513	0.000457764	
6.32019	-0.414734	0.000610352	
6.32141	-0.417175	0.000457764	
6.32355	-0.417786	0.000305176	
6.32538	-0.41748	0.000305176	
6.32416	-0.417786	0.000305176	
6.3266	-0.417786	0	
6.32904	-0.417786	-0.000762939	
6.32996	-0.420532	0	
6.32996	-0.421753	0.000152588	
6.33057	-0.422974	0.000305176	
6.33301	-0.422974	0	
6.33423	-0.423279	0.000152588	
6.33423	-0.422058	0.000457764	
6.33423	-0.422058	0.00137329	
6.33575	-0.424805	0.000915527	
6.3385	-0.427551	0.000610352	
6.33942	-0.427856	0.000915527	
6.34003	-0.427551	0.000457764	
6.34125	-0.427246	0.0012207	
6.34369	-0.427551	0.000305176	
6.34399	-0.427551	0.000457764	
6.3443	-0.429382	0	
6.34521	-0.432434	0.000152588	
6.34827	-0.432434	0.000305176	
6.34949	-0.432739	0.000457764	
6.34918	-0.433044	0.000762939	
6.3504	-0.433044	0.0012207	
6.35101	-0.432739	0.000762939	
6.35376	-0.434265	0.000457764	
6.35498	-0.436707	0.000762939	
6.35437	-0.437317	0.000762939	
6.35559	-0.437317	0.000610352	
6.35864	-0.438538	0.000305176	
6.35895	-0.437622	-0.000610352	
6.35925	-0.437622	-0.000457764	
6.36017	-0.439453	0.000457764	
6.36078	-0.441895	-0.000305176	
6.36292	-0.442505	0.000610352	
6.36444	-0.443115	0	
6.36444	-0.4422	0.000457764	
6.36597	-0.441895	0.000305176	
6.3681	-0.44281	0.000762939	
6.36902	-0.444946	0.000457764	
6.36963	-0.446472	0.000457764	
6.36963	-0.446777	0.000305176	
6.37054	-0.447083	0.000152588	
6.37299	-0.447388	-0.000305176	
6.3736	-0.447998	-0.000152588	
6.37421	-0.447693	0.000305176	
6.37512	-0.449829	0.000305176	
6.37787	-0.452576	0.000152588	
6.37848	-0.452271	0.000152588	
6.37878	-0.452271	0.000457764	
6.37878	-0.451965	0.00152588	
6.38062	-0.45166	0.000915527	
6.38367	-0.452271	0.000457764	
6.38367	-0.454102	0.000305176	
6.38428	-0.456238	0.000457764	
6.38519	-0.457458	0.000762939	
6.38763	-0.456543	0.000457764	
6.38855	-0.457153	0	
6.38947	-0.457458	0.000152588	
6.38916	-0.456543	0.000305176	
6.39008	-0.458984	0.000305176	
6.39252	-0.461426	0.000305176	
6.39343	-0.461426	0.000915527	
6.39404	-0.461731	0.000762939	
6.39496	-0.462036	0.000915527	
6.39832	-0.461426	0.000457764	
6.39923	-0.461731	0.000457764	
6.39893	-0.463867	0.000610352	
6.39893	-0.466614	0.000762939	
6.40015	-0.466919	0.000152588	
6.40259	-0.466614	-0.000305176	
6.4035	-0.467529	-0.000152588	
6.40411	-0.467224	0.000305176	
6.40533	-0.466919	0	
6.40808	-0.468445	0.000305176	
6.409	-0.471191	0.000610352	
6.40869	-0.471802	0.000457764	
6.4093	-0.471497	0.000610352	
6.41022	-0.471191	0.000762939	
6.41296	-0.471497	-0.000152588	
6.41327	-0.471802	0.000152588	
6.41388	-0.473328	0.000305176	
6.41418	-0.476379	0.000152588	
6.41449	-0.47699	-0.000610352	
6.41724	-0.476379	-0.000152588	
6.41876	-0.476074	0	
6.41846	-0.476379	0.000152588	
6.41998	-0.476685	0.000305176	
6.42242	-0.476685	0.000152588	
6.42365	-0.478821	0.000762939	
6.42334	-0.480957	0.00106812	
6.42334	-0.480957	0.00137329	
6.42456	-0.481567	0.000305176	
6.42761	-0.481262	0.000457764	
6.42853	-0.481262	0.000457764	
6.42853	-0.481262	0.000610352	
6.42883	-0.483093	0.000305176	
6.43066	-0.486145	0.000305176	
6.43219	-0.48645	0.000152588	
6.43341	-0.486755	0.000305176	
6.43341	-0.48645	0.000457764	
6.43402	-0.486145	0.000305176	
6.43433	-0.486755	0.000457764	
6.43707	-0.488281	0.00106812	
6.4389	-0.491028	0.000915527	
6.4386	-0.491638	0.000457764	
6.43951	-0.491333	0.000762939	
6.44226	-0.490723	0.000610352	
6.44379	-0.490723	0.000762939	
6.4444	-0.491028	0.000305176	
6.44287	-0.493469	-0.000610352	
6.44409	-0.4953	-0.000457764	
6.44714	-0.495911	0.000152588	
6.44745	-0.496216	-0.000152588	
6.44836	-0.496216	0.000457764	
6.44897	-0.496216	0.000457764	
6.44928	-0.496216	0.000610352	
6.45264	-0.496216	0.000457764	
6.45264	-0.498657	0.000610352	
6.45325	-0.501099	0.000152588	
6.45355	-0.501099	0.000457764	
6.45447	-0.501099	0.000152588	
6.45721	-0.500793	0	
6.45813	-0.501404	-0.000457764	
6.45813	-0.501099	0.000152588	
6.45813	-0.50293	0.000305176	
6.45905	-0.505371	0.000457764	
6.4624	-0.505981	0.000305176	
6.46301	-0.506592	0	
6.46301	-0.505676	0.000457764	
6.46301	-0.505981	0.00137329	
6.46393	-0.506592	0.0012207	
6.46667	-0.508118	0.000915527	
6.4682	-0.510864	0.000610352	
6.46851	-0.510559	0.000457764	
6.46759	-0.510864	0.000305176	
6.46912	-0.511169	0.000152588	
6.47217	-0.511169	0.000152588	
6.47308	-0.511169	0.000152588	
6.47308	-0.510864	0.000610352	
6.47278	-0.513611	0.000610352	
6.47461	-0.515442	0.000610352	
6.47675	-0.516052	0.000610352	
6.47766	-0.515747	0.0012207	
6.47797	-0.516052	0.000915527	
6.47766	-0.516357	0.000457764	
6.47949	-0.516663	0.000305176	
6.48224	-0.515747	0.000610352	
6.48224	-0.518494	0.000915527	
6.48254	-0.520935	0.000457764	
6.48285	-0.52063	-0.000305176	
6.48346	-0.520325	-0.000457764	
6.48651	-0.520935	0.000152588	
6.48773	-0.520935	-0.000152588	
6.48773	-0.520935	0.000152588	
6.48773	-0.52063	0.000152588	
6.48865	-0.523071	0.000305176	
6.49109	-0.525208	0.000610352	
6.49231	-0.525208	0.000610352	
6.492	-0.525818	0.000457764	
6.49231	-0.525818	0.000610352	
6.49414	-0.525208	0.000610352	
6.49689	-0.525818	0	
6.4978	-0.526123	-0.000305176	
6.4975	-0.528259	0.000152588	
6.49719	-0.53009	0	
6.49841	-0.53009	0.000152588	
6.50116	-0.53009	0.000152588	
6.50269	-0.531311	0.000152588	
6.50238	-0.531006	0.000762939	
6.50177	-0.531006	0.00106812	
6.50208	-0.530396	0.00137329	
6.5033	-0.533447	0.000457764	
6.50574	-0.534668	0.000457764	
6.50696	-0.535278	0.000762939	
6.50787	-0.535278	0.000457764	
6.50818	-0.535583	0.000457764	
6.50879	-0.535278	0	
6.51123	-0.535583	0.000152588	
6.51184	-0.535278	0.000610352	
6.51184	-0.535583	0.000305176	
6.51215	-0.53772	0.000457764	
6.51367	-0.539246	0.000762939	
6.51642	-0.540161	0.00106812	
6.51703	-0.540161	0.000762939	
6.51794	-0.540161	0.000915527	
6.51733	-0.539856	0.000457764	
6.51672	-0.539856	0.000305176	
6.51917	-0.540466	0.000610352	
6.521	-0.540466	0.000305176	
6.52222	-0.541992	-0.000457764	
6.52222	-0.545044	-0.000457764	
6.52252	-0.545654	0.000305176	
6.52374	-0.545349	0.000305176	
6.52649	-0.544739	0.000305176	
6.52679	-0.545654	0.000457764	
6.5271	-0.545044	0.000457764	
6.5271	-0.545654	0.000305176	
6.5271	-0.545044	0.000457764	
6.52863	-0.545349	0.000305176	
6.53107	-0.546875	0.000152588	
6.53107	-0.549927	0.000457764	
6.53259	-0.550842	0.000457764	
6.53259	-0.549927	-0.000152588	
6.53351	-0.549927	0.000457764	
6.53595	-0.550537	0.000305176	
6.53717	-0.549927	0.000152588	
6.53717	-0.550232	0.000305176	
6.53687	-0.549927	0	
6.53717	-0.549927	0.000305176	
6.53839	-0.549927	0.0012207	
6.54083	-0.552673	0.0012207	
6.54144	-0.55481	0.000457764	
6.54175	-0.555115	0.000457764	
6.54205	-0.555115	0.000610352	
6.54358	-0.554504	0.000457764	
6.54602	-0.55603	0.000305176	
6.54633	-0.55542	0.000457764	
6.54694	-0.555115	0.000152588	
6.54724	-0.55481	0.000457764	
6.54724	-0.55542	0	
6.54785	-0.55481	0.000305176	
6.5509	-0.55542	0.000457764	
6.55182	-0.55481	0.000915527	
6.55182	-0.555725	0.000610352	
6.5509	-0.55542	0.000457764	
6.55212	-0.557556	0.000305176	
6.55273	-0.559387	0.000762939	
6.55579	-0.559998	0.000305176	
6.55701	-0.560303	0.000305176	
6.55762	-0.560608	-0.000457764	
6.5567	-0.559387	-0.000305176	
6.55792	-0.559998	0	
6.55823	-0.560303	0.000305176	
6.56067	-0.560608	0.000305176	
6.56189	-0.559998	0.000457764	
6.56128	-0.559692	0.000457764	
6.56128	-0.560303	0.000915527	
6.56158	-0.559692	0.000610352	
6.56342	-0.559692	0.000152588	
6.56525	-0.559692	0.000762939	
6.56647	-0.559998	0.000610352	
6.56677	-0.560608	-0.000305176	
6.56647	-0.559692	-0.000457764	
6.56647	-0.559998	0.000305176	
6.56799	-0.560608	0.000305176	
6.57074	-0.560608	0	
6.57166	-0.560608	0.000305176	
6.57135	-0.560608	0	
6.57166	-0.559998	0.000152588	
6.57074	-0.559692	0.00137329	
6.57288	-0.560303	0.00106812	
6.57471	-0.559998	0.000762939	
6.57623	-0.560608	0.000457764	
6.57593	-0.560608	0.000610352	
6.57654	-0.560303	0.000915527	
6.57745	-0.560608	0.000305176	
6.57776	-0.559998	0.000152588	
6.5799	-0.560608	0.000152588	
6.58081	-0.559692	0.000457764	
6.58081	-0.560913	0	
6.58112	-0.560608	0.000610352	
6.58173	-0.560303	0.000762939	
6.58295	-0.559692	0.00106812	
6.586	-0.560608	0.000610352	
6.586	-0.560608	0.000762939	
6.58661	-0.557861	0.000305176	
6.586	-0.55603	0.000457764	
6.5863	-0.555115	0.000610352	
6.58813	-0.555115	0.000305176	
6.59058	-0.555115	-0.000457764	
6.59058	-0.555115	-0.000457764	
6.5918	-0.55542	0	
6.59119	-0.555115	0.000152588	
6.59088	-0.555115	0.000305176	
6.59271	-0.555115	0.000305176	
6.59485	-0.552673	0.000457764	
6.59698	-0.550537	0.000457764	
6.59637	-0.550537	0.000610352	
6.59698	-0.550232	0.000305176	
6.59576	-0.550232	0.000610352	
6.59729	-0.549316	0.000610352	
6.59973	-0.550232	0.000152588	
6.60095	-0.547791	-0.000152588	
6.60065	-0.545654	0.000305176	
6.60065	-0.545044	0.000457764	
6.60095	-0.544739	-0.000152588	
6.60065	-0.545044	0.000457764	
6.60217	-0.545044	-0.000152588	
6.60522	-0.543518	0.000305176	
6.60553	-0.540466	0.00152588	
6.60614	-0.539856	0.00152588	
6.60583	-0.539856	0.000915527	
6.60553	-0.53833	0.000610352	
6.60736	-0.536194	0.000915527	
6.6098	-0.534973	0.000610352	
6.61072	-0.535278	0.000305176	
6.61072	-0.532837	0.000152588	
6.61133	-0.530701	0.000305176	
6.61133	-0.530701	0.000762939	
6.61133	-0.531006	0.000305176	
6.61163	-0.528564	0.000457764	
6.61469	-0.526428	0.000762939	
6.6153	-0.525513	0.000915527	
6.61621	-0.523376	0.000305176	
6.61652	-0.52063	0.000762939	
6.61621	-0.52124	0.000152588	
6.61621	-0.518799	0.000762939	
6.61743	-0.516663	0.000915527	
6.61987	-0.515747	0.000610352	
6.62018	-0.514221	-0.000610352	
6.62079	-0.512085	-0.000610352	
6.62109	-0.510254	0.000152588	
6.62109	-0.508423	-0.000152588	
6.6214	-0.506592	0.000457764	
6.62445	-0.503845	0.000152588	
6.62598	-0.502014	0.000915527	
6.62567	-0.501404	0.000457764	
6.62598	-0.498962	0.000457764	
6.62628	-0.496216	0.000152588	
6.62598	-0.49408	0.000152588	
6.6272	-0.492249	0.000457764	
6.62903	-0.489502	0	
6.62994	-0.487366	-0.000152588	
6.63055	-0.484924	0.000305176	
6.63086	-0.481873	0.000152588	
6.63055	-0.479431	0.000305176	
6.63116	-0.4776	0.000305176	
6.63177	-0.473633	0.000305176	
6.63452	-0.472717	0.000305176	
6.63544	-0.469971	0.00137329	
6.63513	-0.467224	0.00137329	
6.63605	-0.464783	0.000305176	
6.63544	-0.462646	0.000152588	
6.63544	-0.460205	0.000457764	
6.63696	-0.457764	0.000457764	
6.6394	-0.454712	0.000610352	
6.64001	-0.450745	0.000610352	
6.64032	-0.447998	0.000152588	
6.64093	-0.445251	0.000610352	
6.64032	-0.441284	0.000305176	
6.64093	-0.437927	0	
6.64154	-0.435486	0.000762939	
6.64429	-0.43335	0.000762939	
6.64581	-0.430603	0.000762939	
6.6449	-0.426025	0.000457764	
6.64551	-0.421753	0.000610352	
6.64551	-0.418396	0.000610352	
6.64551	-0.415344	0.000610352	
6.64612	-0.411072	0.000457764	
6.64917	-0.408325	-0.000762939	
6.65009	-0.405579	-0.000457764	
6.65039	-0.401001	0.000152588	
6.65009	-0.396729	0.000152588	
6.65009	-0.393982	0.000152588	
6.6507	-0.391235	0.000305176	
6.65161	-0.387573	0.000762939	
6.65375	-0.382385	0.000915527	
6.65466	-0.376892	0.000457764	
6.65466	-0.374756	0.000152588	
6.65558	-0.371399	0.000457764	
6.65527	-0.367126	0.000457764	
6.65527	-0.362549	0	
6.65527	-0.357666	-0.000152588	
6.65649	-0.352783	0	
6.65924	-0.349731	0.000305176	
6.66016	-0.346375	0.000305176	
6.66016	-0.342712	0.000152588	
6.66046	-0.337524	0.000152588	
6.65985	-0.332947	0.000457764	
6.66046	-0.328064	0.000915527	
6.66107	-0.322571	0.00137329	
6.66443	-0.317993	0.000762939	
6.66473	-0.313721	0.000152588	
6.66626	-0.308533	0.000457764	
6.66534	-0.303955	0.000610352	
6.66504	-0.297852	0	
6.66534	-0.293579	0.000305176	
6.66534	-0.289001	0	
6.66656	-0.284119	0.000305176	
6.66901	-0.278625	0.000457764	
6.66992	-0.274353	0.000152588	
6.67084	-0.269165	0.000915527	
6.67114	-0.263367	0.000915527	
6.67053	-0.259094	0.000762939	
6.67023	-0.253906	0.000457764	
6.67145	-0.249634	0.000610352	
6.67389	-0.244751	0.000457764	
6.6748	-0.239258	0.000610352	
6.67542	-0.234375	0.000610352	
6.67511	-0.229797	-0.000305176	
6.67511	-0.225525	-0.000457764	
6.67542	-0.220032	0	
6.67542	-0.214539	0	
6.67603	-0.209961	0	
6.67938	-0.205994	0.000305176	
6.6806	-0.198364	0.000457764	
6.6803	-0.191345	0.000610352	
6.6803	-0.185852	0.000305176	
6.67999	-0.18158	0.000457764	
6.6803	-0.175476	0.000305176	
6.6803	-0.170288	0.000610352	
6.68091	-0.16571	0.000152588	
6.68335	-0.158997	0	
6.68518	-0.152283	0	
6.68488	-0.1474	0.000305176	
6.68549	-0.142212	0.000305176	
6.68579	-0.137024	0.000305176	
6.68488	-0.131531	-0.000152588	
6.68518	-0.124817	0.000152588	
6.6864	-0.117798	0.0012207	
6.68915	-0.112	0.0012207	
6.68915	-0.107117	0.000762939	
6.69006	-0.101013	0.000457764	
6.69037	-0.0930786	0.000915527	
6.69037	-0.0878906	0.000610352	
6.69006	-0.0820923	0.000152588	
6.68976	-0.078125	0.000305176	
6.69098	-0.0714111	0.000305176	
6.69434	-0.0640869	0.000457764	
6.69434	-0.0585938	0	
6.69525	-0.0543213	0.000152588	
6.69495	-0.0460815	0.000457764	
6.69495	-0.0387573	0.000762939	
6.69525	-0.0338745	0.000457764	
6.69495	-0.0283813	0.000610352	
6.69617	-0.0219727	0.000457764	
6.6983	-0.0146484	0.000915527	
6.69983	-0.00946045	0.000610352	
6.70074	-0.00244141	0.000610352	
6.70013	0.00457764	-0.000305176	
6.70044	0.0106812	-0.000610352	
6.70074	0.0152588	0.000457764	
6.69983	0.0219727	0.000152588	
6.70013	0.0292969	0.000305176	
6.70105	0.0341797	0.000152588	
6.70319	0.0418091	0.000152588	
6.70441	0.0494385	0.000305176	
6.70502	0.0546265	0.000915527	
6.70532	0.0592041	0.000305176	
6.70532	0.0665283	0.000457764	
6.70502	0.0735474	0.000610352	
6.70471	0.0790405	0.000152588	
6.70593	0.0848389	0	
6.70837	0.0921631	0.000152588	
6.7099	0.0970459	0.000152588	
6.7099	0.104065	0.000457764	
6.71021	0.112305	0.000305176	
6.71021	0.117493	0	
6.71021	0.122375	0.000305176	
6.70929	0.129395	0.00106812	
6.70959	0.136719	0.00137329	
6.71082	0.142212	0.000610352	
6.71387	0.148926	0.000610352	
6.71448	0.155945	0.000457764	
6.7157	0.161743	0.000610352	
6.71509	0.168457	0.000305176	
6.71478	0.176697	0.000152588	
6.71448	0.181274	0.000152588	
6.71448	0.188293	0.000305176	
6.71417	0.195313	0.000305176	
6.71631	0.200806	0.000305176	
6.71814	0.205383	0.000305176	
6.71936	0.212708	0.000762939	
6.71997	0.219116	0.000915527	
6.71967	0.224915	0.000610352	
6.71906	0.232849	0.000762939	
6.72028	0.239868	0.000762939	
6.71936	0.245361	0.000762939	
6.71906	0.249634	0.000762939	
6.72089	0.256958	-0.000305176	
6.72333	0.264282	-0.000610352	
6.72424	0.26947	0.000152588	
6.72455	0.276794	0	
6.72546	0.283203	0.000457764	
6.72485	0.289307	0.000152588	
6.72485	0.293884	0.000915527	
6.72455	0.301208	0.000762939	
6.72485	0.308228	0.000610352	
6.72516	0.31311	0.000610352	
6.72821	0.318604	0.000915527	
6.72913	0.325928	0.000610352	
6.72974	0.332947	0.000152588	
6.72974	0.33905	0	
6.72943	0.342407	0.000152588	
6.73004	0.350037	0.000305176	
6.73004	0.357361	0.000305176	
6.73004	0.361938	0.000457764	
6.73035	0.367432	0	
6.7334	0.37384	0.000457764	
6.73431	0.38147	0.000915527	
6.73492	0.387573	0.00106812	
6.73462	0.391846	0.000762939	
6.73462	0.397034	0.000457764	
6.73462	0.404053	0.000915527	
6.73492	0.411377	0.000610352	
6.73431	0.415955	0.000305176	
6.73431	0.421753	0.000152588	
6.73523	0.426636	0.000152588	
6.73889	0.433655	0.000305176	
6.73889	0.440674	0	
6.7395	0.445862	0.000305176	
6.73981	0.450745	0.000762939	
6.7392	0.455627	0.000762939	
6.7395	0.460815	0.000762939	
6.73889	0.46814	0.000610352	
6.7395	0.474854	0.000610352	
6.74072	0.480347	0.000610352	
6.74347	0.48584	0.000762939	
6.74408	0.489807	0.000457764	
6.74469	0.494995	-0.000305176	
6.74438	0.499573	-0.000305176	
6.74469	0.504761	0.000152588	
6.74408	0.511475	0	
6.74469	0.518799	0.000152588	
6.74438	0.523987	0	
6.745	0.529175	0.000152588	
6.745	0.534058	0.000762939	
6.74835	0.539246	0.000457764	
6.74927	0.544434	0.000610352	
6.74896	0.549011	0.000915527	
6.74896	0.553589	0.000610352	
6.74896	0.558472	0.000305176	
6.74866	0.56366	-0.000152588	
6.74866	0.568542	-0.000152588	
6.74896	0.573425	0.000457764	
6.74927	0.578308	0.000305176	
6.75049	0.583801	0	
6.75293	0.587769	0.000152588	
6.75415	0.593262	0.000305176	
6.75415	0.597839	0.000915527	
6.75415	0.603333	0.00137329	
6.75446	0.60791	0.000305176	
6.75476	0.613098	0.000457764	
6.75415	0.617371	0.000762939	
6.75415	0.622864	0.000762939	
6.75415	0.627441	0.000610352	
6.75507	0.632019	0.000457764	
6.7572	0.637207	0.000152588	
6.75964	0.641785	0.000762939	
6.75842	0.646667	0.000305176	
6.75934	0.651855	0.000610352	
6.75934	0.654602	0.000610352	
6.75903	0.657043	0.000915527	
6.75934	0.661621	0.000762939	
6.75903	0.665894	0.000762939	
6.75842	0.672302	0.000610352	
6.76056	0.676575	0.000457764	
6.7627	0.681763	0.000457764	
6.76361	0.68573	0.000610352	
6.76392	0.688782	-0.000152588	
6.76361	0.691833	-0.000610352	
6.76331	0.696106	0	
6.76422	0.701294	0.000457764	
6.76392	0.706177	0.000152588	
6.76392	0.708618	0.000457764	
6.76392	0.711365	0.000457764	
6.76514	0.715637	0.000762939	
6.76758	0.72052	0.000457764	
6.7688	0.724182	0.000152588	
6.7688	0.726318	0.000152588	
6.7688	0.730896	0.000915527	
6.7688	0.735168	0.000152588	
6.7691	0.737915	-0.000152588	
6.7688	0.740967	0.000152588	
6.7691	0.745239	0.000305176	
6.7691	0.750122	0.000152588	
6.76971	0.752563	0	
6.77368	0.755615	0.000305176	
6.77429	0.760193	0.000305176	
6.77368	0.762939	0.0012207	
6.77399	0.765381	0.00183105	
6.77429	0.770264	0.0012207	
6.77368	0.772705	0.000152588	
6.77399	0.775757	0.000915527	
6.77429	0.777588	0.000305176	
6.77429	0.780945	0.000610352	
6.77368	0.784302	0.000152588	
6.7749	0.787048	0	
6.77795	0.789185	0.000457764	
6.77856	0.791931	0.000305176	
6.77856	0.794983	0.000152588	
6.77887	0.79895	0.000610352	
6.77887	0.802002	0.000762939	
6.77795	0.804138	0.000762939	
6.77887	0.806885	0.00106812	
6.77887	0.810242	0.000762939	
6.77887	0.811768	0.000610352	
6.7807	0.814209	0.000610352	
6.78253	0.81665	0.000457764	
6.78375	0.818787	-0.000152588	
6.78375	0.821533	-0.000457764	
6.78345	0.82428	0.000152588	
6.78375	0.826416	0.000457764	
6.78345	0.828857	0.000152588	
6.78406	0.830994	0.000762939	
6.78375	0.83374	0.000305176	
6.78375	0.836182	0.000610352	
6.78375	0.836487	0.000610352	
6.78528	0.838623	0.000152588	
6.78772	0.841675	0.000305176	
6.78833	0.843811	0.000152588	
6.78925	0.846252	0.000457764	
6.78864	0.846252	-0.000305176	
6.78864	0.848694	0.000152588	
6.78894	0.85083	0.000457764	
6.78925	0.85144	0.000457764	
6.78864	0.853882	0.000152588	
6.78925	0.855713	0	
6.78925	0.856323	0.000457764	
6.79016	0.858765	0.000915527	
6.79291	0.860596	0.00137329	
6.79382	0.861206	0.00106812	
6.79321	0.863342	0.000457764	
6.79352	0.865479	0.000915527	
6.79352	0.865479	0.000305176	
6.79321	0.865784	0.000610352	
6.79321	0.868225	0.000152588	
6.79382	0.871582	0	
6.79382	0.870667	0.000610352	
6.79321	0.870972	0.000457764	
6.79504	0.873108	0.000305176	
6.79749	0.875854	0.000457764	
6.7981	0.875854	0.000610352	
6.7981	0.876465	0.000457764	
6.79901	0.875854	0.000457764	
6.79871	0.877686	0.000457764	
6.79871	0.880737	0.000762939	
6.79901	0.881653	0.000457764	
6.7981	0.880432	0.000305176	
6.7984	0.881042	0	
6.79871	0.880737	-0.000457764	
6.79993	0.880432	0.000152588	
6.80237	0.880737	0.000915527	
6.80359	0.882263	0.000305176	
6.80328	0.885315	0.000305176	
6.80389	0.88562	0.000305176	
6.80328	0.885925	0.000762939	
6.80298	0.885315	0.000610352	
6.80359	0.885925	0.000305176	
6.80267	0.885315	0.000457764	
6.80328	0.885925	0.000457764	
6.80359	0.885315	0.000152588	
6.8045	0.88562	0.000152588	
6.80756	0.885925	0	
6.80756	0.885925	0.000305176	
6.80847	0.88562	0.000305176	
6.80878	0.885925	0.000305176	
6.80847	0.885925	0	
6.80847	0.885925	0.000305176	
6.80756	0.885315	0.00106812	
6.80786	0.885925	0.00137329	
6.80847	0.885925	0.000457764	
6.80817	0.88623	0.000457764	
6.80969	0.88623	0.000305176	
6.81183	0.88562	0.000915527	
6.81274	0.885925	0.000305176	
6.81366	0.88623	0.000152588	
6.81274	0.885925	0.000305176	
6.81305	0.88562	0.000152588	
6.81335	0.883484	0.000457764	
6.81366	0.881348	0.000305176	
6.81274	0.880737	0.000610352	
6.81366	0.880737	0.000610352	
6.81274	0.880737	0.000915527	
6.81335	0.880432	0.000762939	
6.81427	0.880432	0.000610352	
6.81671	0.879211	0.000915527	
6.81793	0.876465	0.000610352	
6.81763	0.875549	0.000457764	
6.81824	0.875854	0	
6.81793	0.876465	-0.000610352	
6.81885	0.876465	-0.000152588	
6.81793	0.873413	0.000305176	
6.81885	0.870972	0.000152588	
6.81824	0.870972	0	
6.81824	0.870972	-0.000152588	
6.81915	0.86853	0.000762939	
6.82129	0.866089	0.000610352	
6.82373	0.865784	0.000305176	
6.82373	0.865784	0.000762939	
6.82312	0.864563	0.000610352	
6.82373	0.861511	0	
6.82251	0.861511	-0.000152588	
6.82312	0.861511	0	
6.82343	0.858765	-0.000152588	
6.82312	0.856323	0	
6.82343	0.856934	0.000152588	
6.82373	0.854492	0.000152588	
6.82404	0.85144	-0.000152588	
6.82709	0.851746	0.0012207	
6.828	0.850525	0.0012207	
6.828	0.846558	0.000610352	
6.8277	0.846558	0.000305176	
6.8277	0.844421	0.000915527	
6.82831	0.841675	0.000762939	
6.8277	0.84198	0.000152588	
6.828	0.839233	0.000305176	
6.828	0.837708	0.000152588	
6.828	0.837097	0.000457764	
6.82861	0.834351	0.000305176	
6.83197	0.832214	0	
6.83258	0.830078	0.000457764	
6.83289	0.827026	0.000457764	
6.83289	0.826416	0.000762939	
6.8335	0.824585	0.000610352	
6.83319	0.822449	0.000457764	
6.8335	0.819702	0.000457764	
6.8335	0.817261	0.000305176	
6.83258	0.814819	0.000457764	
6.83289	0.812683	-0.000457764	
6.83258	0.812683	-0.000457764	
6.8338	0.809631	0	
6.83655	0.807495	0	
6.83807	0.805054	0.000152588	
6.83807	0.802917	-0.000152588	
6.83807	0.800171	0.000152588	
6.83716	0.79834	0.000762939	
6.83838	0.794983	0.000762939	
6.83899	0.792847	0.000457764	
6.83838	0.7901	0.000305176	
6.83777	0.787659	0.000762939	
6.83777	0.785217	0.000305176	
6.83838	0.783691	0	
6.83929	0.780334	0	
6.84113	0.778503	0.000305176	
6.84326	0.776062	0.000305176	
6.84296	0.773926	0.000305176	
6.84357	0.771179	0.000457764	
6.84296	0.768738	0.000305176	
6.84296	0.765991	0.000762939	
6.84326	0.76416	0.0012207	
6.84296	0.761414	0.000610352	
6.84296	0.756836	0.000152588	
6.84296	0.753784	0.000610352	
6.84326	0.751343	0.000915527	
6.84479	0.748901	0.000457764	
6.84692	0.746765	0.000457764	
6.84784	0.744324	0.000305176	
6.84784	0.741272	0.000305176	
6.84845	0.737305	0.000152588	
6.84814	0.734558	0.000305176	
6.84814	0.730896	0.000152588	
6.84814	0.729065	0.000762939	
6.84784	0.726929	0.000915527	
6.84875	0.722656	0.000762939	
6.84814	0.719299	0.000762939	
6.84784	0.716553	0.000762939	
6.84906	0.714111	0.000762939	
6.85181	0.711975	0.000762939	
6.85242	0.707397	-0.000152588	
6.85303	0.704956	-0.000457764	
6.85303	0.701599	-0.000152588	
6.85272	0.697021	0	
6.85364	0.692139	0.000305176	
6.85272	0.690308	0.000457764	
6.85242	0.686951	0.000305176	
6.85272	0.683594	0.000457764	
6.85272	0.680237	0.000762939	
6.85242	0.67749	0.000610352	
6.85425	0.673828	0.000305176	
6.8576	0.670471	0.000457764	
6.85791	0.667419	0.000305176	
6.85822	0.662842	-0.000152588	
6.85791	0.65979	0	
6.8576	0.657959	0.000305176	
6.85791	0.653687	0.000305176	
6.85852	0.651245	0.000152588	
6.8573	0.647278	0	
6.85852	0.643616	0	
6.85791	0.641479	0.000762939	
6.85852	0.638123	0.00137329	
6.85791	0.63324	0.000457764	
6.85852	0.631104	0.000457764	
6.86157	0.628967	0.000762939	
6.86249	0.624695	0.000915527	
6.86279	0.619507	0.000305176	
6.86249	0.61615	0.000152588	
6.86249	0.614014	0.000152588	
6.8631	0.609131	0.000305176	
6.86249	0.606689	0.000610352	
6.86249	0.604248	0.000152588	
6.8631	0.598755	0.000457764	
6.86249	0.597229	0.000457764	
6.86279	0.595093	0.000915527	
6.8634	0.59021	0.000457764	
6.86584	0.585022	0.000762939	
6.86768	0.582581	0.000305176	
6.86768	0.579529	0.000305176	
6.86768	0.575256	0.000457764	
6.86768	0.572815	-0.000152588	
6.86768	0.570374	-0.000610352	
6.86829	0.565491	0.000152588	
6.86768	0.560303	0	
6.86737	0.557556	0.000152588	
6.86737	0.55481	0.000152588	
6.86798	0.550232	-0.000152588	
6.86768	0.547791	0.000762939	
6.8689	0.545654	0.000457764	
6.87134	0.540466	0.000152588	
6.87256	0.535889	0.000152588	
6.87225	0.533752	0.000457764	
6.87195	0.53009	-0.000152588	
6.87286	0.525818	0.000152588	
6.87256	0.52063	0	
6.87256	0.519104	0.000152588	
6.87225	0.515442	0.000305176	
6.87225	0.510864	0	
6.87225	0.508728	0.000305176	
6.87286	0.505981	0.000305176	
6.87378	0.501709	0.000915527	
6.87622	0.496521	0.0012207	
6.87744	0.494385	0.000762939	
6.87714	0.491333	0.000305176	
6.87714	0.48645	0.000762939	
6.87775	0.481567	0.000457764	
6.87714	0.479126	0.000610352	
6.87714	0.476685	0.000305176	
6.87714	0.471497	0.000152588	
6.87775	0.466919	0.000610352	
6.87775	0.464172	0.000305176	
6.87683	0.461426	0.000305176	
6.87744	0.458069	0.000915527	
6.87836	0.455322	0.000457764	
6.88171	0.452576	0.000610352	
6.88202	0.447693	0.000305176	
6.88263	0.443115	0.000610352	
6.88293	0.439758	0.00106812	
6.88232	0.437927	0.000305176	
6.88202	0.432739	0.000457764	
6.88232	0.430298	0	
6.88263	0.427856	-0.000610352	
6.88202	0.423279	-0.000152588	
6.88293	0.418091	0	
6.88232	0.415344	0.000152588	
6.88232	0.412292	0.000152588	
6.88354	0.40802	0.000152588	
6.8866	0.403137	0.000762939	
6.8869	0.400696	0.000915527	
6.88751	0.397644	0.000610352	
6.88751	0.393372	0.000457764	
6.88782	0.391235	0.000457764	
6.88721	0.388184	0.000610352	
6.88751	0.383911	-0.000152588	
6.88751	0.379333	-0.000152588	
6.88751	0.376282	0.000152588	
6.88751	0.374146	0.000305176	
6.8869	0.369568	0.000305176	
6.88751	0.366516	0.000610352	
6.88843	0.36377	0.000457764	
6.89087	0.359497	0.00106812	
6.89301	0.356445	0.00137329	
6.89178	0.354004	0.000610352	
6.89178	0.349121	0.000152588	
6.8924	0.344849	0.000610352	
6.8924	0.342407	0.000610352	
6.8927	0.339355	0.000610352	
6.8924	0.334473	0.000152588	
6.89301	0.332642	0	
6.89178	0.329285	0.000457764	
6.8924	0.324707	0.000305176	
6.8924	0.32196	0.000457764	
6.8927	0.319519	0.000152588	
6.89636	0.314636	0.000305176	
6.89697	0.3125	0.00137329	
6.89697	0.310669	0.000610352	
6.89728	0.306091	0.000610352	
6.89697	0.303345	0.000305176	
6.89697	0.300293	0.000915527	
6.89758	0.295715	0.000305176	
6.89758	0.292969	0	
6.89667	0.289917	-0.000457764	
6.89758	0.285645	0	
6.89697	0.283203	0	
6.89789	0.280457	0.000152588	
6.8985	0.276489	0.000152588	
6.90155	0.273132	0	
6.90186	0.271301	0.000457764	
6.90247	0.265808	0.000305176	
6.90216	0.263367	0.000610352	
6.90186	0.260315	0.000457764	
6.90247	0.256653	0.000610352	
6.90247	0.253601	0	
6.90186	0.25116	-0.000305176	
6.90247	0.246887	-0.000152588	
6.90216	0.244141	0.000152588	
6.90247	0.240479	0.000152588	
6.90277	0.238342	0.000152588	
6.90216	0.236816	0.000152588	
6.90369	0.231934	0.000152588	
6.90613	0.229797	0.000915527	
6.90765	0.22644	0.0012207	
6.90674	0.222778	0.000762939	
6.90704	0.218811	0.000152588	
6.90613	0.216675	0.000915527	
6.90704	0.214844	0.000305176	
6.90735	0.211792	0.000305176	
6.90613	0.207214	0.000152588	
6.90735	0.205383	0	
6.90674	0.202026	0.000610352	
6.90704	0.19928	0.000305176	
6.90735	0.197449	0.000305176	
6.90765	0.192261	0.000457764	
6.9104	0.190125	0.000762939	
6.91162	0.187073	0.0012207	
6.91193	0.185547	0.000457764	
6.91162	0.18219	0.000610352	
6.91162	0.178223	0.000457764	
6.91193	0.175781	0.000305176	
6.91132	0.172119	0.000305176	
6.91132	0.170593	-0.000305176	
6.91162	0.167236	-0.000457764	
6.91193	0.164795	-0.000152588	
6.91162	0.162659	0	
6.91284	0.158691	0	
6.91223	0.155945	0.000305176	
6.91284	0.152588	0.000152588	
6.9162	0.150452	0.000457764	
6.91681	0.14801	0.000305176	
6.91742	0.146484	0.000305176	
6.91772	0.142822	0.000457764	
6.9165	0.141602	0.000305176	
6.91711	0.137939	0	
6.91772	0.134277	0	
6.91681	0.131226	0	
6.91742	0.128479	0.000305176	
6.91711	0.126038	0	
6.9165	0.123291	0.000305176	
6.91711	0.121155	0.000305176	
6.91711	0.118713	0.000152588	
6.91803	0.116577	0.00106812	
6.92078	0.11322	0.00106812	
6.92169	0.111694	0.00106812	
6.92169	0.108643	0.000152588	
6.92169	0.106506	0.000762939	
6.92139	0.104065	0.000762939	
6.92139	0.101624	0.000915527	
6.92139	0.098877	0.000152588	
6.9223	0.0964355	0.000152588	
6.922	0.0933838	0.000457764	
6.92139	0.0918579	0	
6.922	0.0897217	0.000610352	
6.92169	0.0878906	0.000457764	
6.92169	0.0845337	0.000152588	
6.92261	0.0820923	0.00137329	
6.92535	0.0805664	0.000457764	
6.92596	0.0784302	0.000457764	
6.92657	0.0753784	0.000457764	
6.92688	0.0732422	0.000305176	
6.92688	0.0723267	0.000610352	
6.92749	0.0704956	0	
6.92566	0.0686646	-0.000305176	
6.92657	0.0646973	0	
6.92688	0.0628662	-0.000152588	
6.92688	0.0604248	0.000152588	
6.92627	0.0588989	0.000457764	
6.92688	0.0558472	0.000305176	
6.92688	0.0534058	0.000610352	
6.9278	0.0524902	0.000457764	
6.93085	0.050354	0.000610352	
6.93176	0.0488281	0.000305176	
6.93146	0.0454712	0.000457764	
6.93176	0.043335	0.000152588	
6.93268	0.0415039	0.000152588	
6.93176	0.038147	-0.000305176	
6.93176	0.0384521	0	
6.93207	0.0357056	0.000305176	
6.93115	0.0338745	0.000305176	
6.93207	0.0308228	0.000457764	
6.93085	0.0292969	-0.000152588	
6.93115	0.0256348	0.000915527	
6.93207	0.0238037	0.0012207	
6.93237	0.0231934	0.000915527	
6.93542	0.0210571	0.000305176	
6.93695	0.0189209	0.000915527	
6.93634	0.0161743	0.000305176	
6.93695	0.0137329	0.000457764	
6.93665	0.0131226	0	
6.93634	0.0119019	0.000152588	
6.93695	0.00915527	0.000457764	
6.93726	0.00762939	0.000457764	
6.93665	0.00640869	0	
6.93695	0.00396729	0.000610352	
6.93665	0.0012207	0.000457764	
6.93695	-0.000610352	0.0012207	
6.93634	-0.000610352	0.000305176	
6.93787	-0.00305176	0.000762939	
6.94031	-0.00549316	0.000457764	
6.94183	-0.00610352	0.000305176	
6.94214	-0.00854492	0.000457764	
6.94153	-0.0100708	-0.000152588	
6.94153	-0.0109863	-0.000457764	
6.94214	-0.0128174	0	
6.94122	-0.015564	0.000152588	
6.94244	-0.0161743	0	
6.94183	-0.0177002	0.000152588	
6.94183	-0.020752	-0.000152588	
6.94122	-0.0231934	0.000457764	
6.94183	-0.0250244	0.000457764	
6.94122	-0.0256348	0.000305176	
6.94183	-0.027771	-0.000152588	
6.94336	-0.0302124	0.000457764	
6.94519	-0.0302124	0.000457764	
6.94672	-0.0305176	0	
6.94702	-0.032959	-0.000305176	
6.94702	-0.0350952	-0.000152588	
6.94672	-0.0354004	0.000610352	
6.94641	-0.0372314	0.000152588	
6.94702	-0.0405884	0.000152588	
6.94672	-0.0402832	0.000305176	
6.94641	-0.0424194	0.000762939	
6.94702	-0.0448608	0.0012207	
6.94672	-0.045166	0.00106812	
6.94672	-0.0469971	0.000152588	
6.94611	-0.0500488	0.00106812	
6.94763	-0.0506592	0.000610352	
6.95007	-0.0524902	0.000610352	
6.95129	-0.0546265	0.000152588	
6.95068	-0.0552368	0	
6.95129	-0.055542	0.000457764	
6.95099	-0.0570679	0.000152588	
6.95129	-0.0595093	0.000610352	
6.95221	-0.0604248	0.000305176	
6.9516	-0.0628662	0.000457764	
6.95099	-0.0646973	0.000762939	
6.9519	-0.0650024	0.000762939	
6.9516	-0.0653076	0.000610352	
6.95129	-0.0668335	0.000152588	
6.95221	-0.0692749	0.000305176	
6.95129	-0.0698853	0.000610352	
6.95282	-0.0695801	0	
6.95496	-0.0714111	-0.000610352	
6.95618	-0.0741577	0.000152588	
6.95618	-0.0753784	0.000305176	
6.95587	-0.0769043	0	
6.95679	-0.0787354	0.000152588	
6.95679	-0.0793457	0	
6.95618	-0.0790405	0.000457764	
6.95618	-0.0805664	0.000457764	
6.95618	-0.0845337	0.000457764	
6.95587	-0.0842285	0.000457764	
6.95618	-0.0836182	0.000457764	
6.95618	-0.0869751	0.000610352	
6.95557	-0.0888062	-0.000152588	
6.95801	-0.0894165	0	
6.96014	-0.0894165	0	
6.96075	-0.0912476	0.000152588	
6.96136	-0.0927734	0.000152588	
6.96075	-0.0946045	0.000915527	
6.96075	-0.093689	0.000305176	
6.96136	-0.0939941	0.00106812	
6.96106	-0.0961304	0.00106812	
6.96136	-0.0985718	0.00152588	
6.96136	-0.0994873	0.000152588	
6.96136	-0.0991821	0.000762939	
6.96106	-0.101318	0.000457764	
6.96136	-0.103455	0.000457764	
6.96136	-0.104065	0.000152588	
6.96075	-0.104065	0.000305176	
6.96198	-0.105591	0.000305176	
6.96411	-0.108948	0.000610352	
6.96594	-0.108643	0.000457764	
6.96594	-0.108948	0.000305176	
6.96564	-0.108337	0.000152588	
6.96533	-0.111389	0.0012207	
6.96625	-0.113525	0.000305176	
6.96594	-0.11322	0.000762939	
6.96564	-0.114136	0.000762939	
6.96625	-0.113831	0.000457764	
6.96625	-0.115967	0.000457764	
6.96625	-0.118103	0	
6.96594	-0.119019	-0.000457764	
6.96655	-0.118408	-0.000305176	
6.96564	-0.119019	0.000152588	
6.96686	-0.12085	0.000152588	
6.9696	-0.123901	0.000152588	
6.97083	-0.124207	0.000305176	
6.97144	-0.123901	0.000305176	
6.97144	-0.123901	0.000305176	
6.97052	-0.125732	0.000457764	
6.97113	-0.128479	0.000457764	
6.97144	-0.128479	0.000457764	
6.97083	-0.128784	0.000457764	
6.97113	-0.128784	0.000305176	
6.97021	-0.13092	-0.000152588	
6.97113	-0.133057	0.000152588	
6.97113	-0.133057	0.000152588	
6.97113	-0.133362	0.000305176	
6.97144	-0.133667	0.000305176	
6.97479	-0.136108	0.000152588	
6.97601	-0.137634	0.000762939	
6.97632	-0.138245	0.00137329	
6.97571	-0.138855	0.0012207	
6.97571	-0.138855	0.000305176	
6.97601	-0.140686	0.000915527	
6.97571	-0.141907	0.000305176	
6.9754	-0.143738	0.000457764	
6.97601	-0.143433	0.000305176	
6.97632	-0.143433	0.000457764	
6.97601	-0.143738	0.000305176	
6.97571	-0.145569	0.000305176	
6.97571	-0.148315	0.000305176	
6.97601	-0.148621	0.000457764	
6.97632	-0.148315	0.000305176	
6.97968	-0.14801	0.00106812	
6.9809	-0.148621	0.000457764	
6.9809	-0.149841	0.000457764	
6.98059	-0.152588	0.000762939	
6.98029	-0.153198	0.000152588	
6.98059	-0.152893	0.000457764	
6.9809	-0.152588	0	
6.98059	-0.155029	-0.000762939	
6.98059	-0.157471	0.000152588	
6.9809	-0.157776	0.000305176	
6.9809	-0.157776	0.000152588	
6.98029	-0.158386	0	
6.98059	-0.158386	0	
6.9809	-0.159607	0.000762939	
6.98151	-0.162048	0.000610352	
6.98456	-0.162354	0.000457764	
6.98639	-0.162659	0.000610352	
6.98578	-0.162048	0.000610352	
6.98639	-0.162354	0.000305176	
6.98578	-0.164795	0.000152588	
6.98547	-0.166931	-0.000152588	
6.98547	-0.167542	0	
6.98547	-0.167847	0.000305176	
6.98517	-0.167542	0.000152588	
6.98547	-0.167847	0.000305176	
6.98578	-0.169678	0.000457764	
6.98578	-0.172119	0.000762939	
6.98639	-0.173035	0.0012207	
6.98761	-0.17334	0.00106812	
6.99005	-0.173035	0.000305176	
6.99036	-0.172729	0.000915527	
6.99036	-0.172729	0.000152588	
6.99036	-0.174561	0.000457764	
6.99066	-0.176697	0.000152588	
6.99066	-0.177612	0.000457764	
6.99066	-0.177612	0.000305176	
6.99127	-0.177917	0.000762939	
6.99097	-0.178223	0.000152588	
6.99097	-0.179749	0.000457764	
6.99066	-0.18219	0.000305176	
6.99127	-0.18219	0.0012207	
6.99127	-0.1828	0.000457764	
6.99097	-0.182495	0.000305176	
6.99219	-0.181885	0.000762939	
6.99463	-0.184937	0.000457764	
6.99554	-0.186462	0.000457764	
6.99615	-0.187378	0	
6.99554	-0.187683	-0.000457764	
6.99615	-0.187683	-0.000152588	
6.99615	-0.187683	0	
6.99554	-0.187378	0.000457764	
6.99585	-0.189209	0.000305176	
6.99585	-0.192261	-0.000152588	
6.99615	-0.191956	0.00106812	
6.99554	-0.192261	0.000457764	
6.99646	-0.192261	0.000610352	
6.99585	-0.192566	0.000305176	
6.99554	-0.194702	0.000457764	
6.99707	-0.196533	0.000305176	
6.99951	-0.197144	-0.000305176	
7.00134	-0.197449	-0.000152588	
7.00073	-0.197449	0.000305176	
7.00073	-0.197144	0.000152588	
7.00073	-0.196838	0.000305176	
7.00073	-0.198669	0.000610352	
7.00165	-0.201416	0.000457764	
7.00104	-0.202026	0.000915527	
7.00043	-0.202942	0.00137329	
7.00104	-0.202942	0.00106812	
7.00043	-0.202637	0.000152588	
7.00104	-0.204468	0.000762939	
7.00012	-0.206604	0.000610352	
7.00165	-0.206909	0.000610352	
7.005	-0.20752	0.000152588	
7.00531	-0.206909	0	
7.00562	-0.206604	0.000610352	
7.00531	-0.206909	0.000305176	
7.00592	-0.209045	0.000457764	
7.00531	-0.211792	0.000610352	
7.00531	-0.211792	0.000305176	
7.00623	-0.211487	0.0012207	
7.00562	-0.211792	0.000305176	
7.00592	-0.212097	0.000457764	
7.00531	-0.213318	0.000457764	
7.00592	-0.21637	0.000305176	
7.00592	-0.216675	0.000305176	
7.00562	-0.216675	0.000152588	
7.00623	-0.217285	-0.000610352	
7.00897	-0.216675	0.000152588	
7.01019	-0.219116	0.000152588	
7.01019	-0.221558	0	
7.0108	-0.222168	0.000152588	
7.0108	-0.222168	0.000457764	
7.0105	-0.221863	0.000610352	
7.0105	-0.221252	0.000305176	
7.0105	-0.221558	0.000305176	
7.0105	-0.223999	0	
7.0105	-0.226135	0.000305176	
7.0105	-0.22644	0.000457764	
7.01019	-0.226746	-0.000305176	
7.0108	-0.226746	-0.000152588	
7.01111	-0.226746	-0.000305176	
7.01172	-0.228882	0.000152588	
7.01447	-0.231018	0.000152588	
7.01569	-0.231018	0.000152588	
7.01538	-0.231934	0.000305176	
7.01569	-0.231628	0.000457764	
7.01569	-0.231628	0.0012207	
7.01569	-0.233765	0.000762939	
7.01599	-0.235901	0.000152588	
7.01599	-0.236511	0.000762939	
7.01569	-0.236206	0.000457764	
7.01569	-0.236511	0.000762939	
7.01569	-0.236206	0.000305176	
7.01599	-0.236511	0.000152588	
7.01569	-0.238342	0.000152588	
7.01691	-0.240479	0.000305176	
7.01996	-0.241394	0.000457764	
7.02026	-0.240784	0.000457764	
7.02026	-0.241089	0.000305176	
7.02118	-0.241699	0.00106812	
7.02057	-0.244141	0.000915527	
7.02057	-0.245667	0.000610352	
7.02087	-0.245972	0.000457764	
7.02087	-0.246277	0.000610352	
7.02087	-0.246277	0.000762939	
7.02087	-0.245972	0	
7.02057	-0.248413	-0.000457764	
7.02026	-0.250854	0.000305176	
7.02057	-0.251465	0.000305176	
7.02087	-0.25177	0.000152588	
7.02209	-0.250854	0.000305176	
7.02393	-0.25116	0.000305176	
7.02515	-0.25238	0.000762939	
7.02576	-0.255127	0.000610352	
7.02515	-0.256042	0.000152588	
7.02515	-0.256042	0.000152588	
7.02545	-0.256042	0.000457764	
7.02545	-0.255737	0.000457764	
7.02545	-0.258179	-0.000152588	
7.02515	-0.26001	-0.000152588	
7.02484	-0.260925	0.000305176	
7.02576	-0.26062	0.000305176	
7.02606	-0.26062	0.000152588	
7.02637	-0.26062	0.000457764	
7.02515	-0.263062	0	
7.02637	-0.264893	0.000457764	
7.02942	-0.265808	0.00152588	
7.03033	-0.266418	0.0012207	
7.03033	-0.266113	0.000305176	
7.03064	-0.266418	0.000915527	
7.03003	-0.26825	0.000457764	
7.03033	-0.270081	0.000762939	
7.03003	-0.270996	0.000305176	
7.03064	-0.270996	0.000305176	
7.03064	-0.270996	0.000152588	
7.03064	-0.270386	0.000610352	
7.03033	-0.272522	0.000305176	
7.03125	-0.275574	0.000305176	
7.03094	-0.275269	0.000152588	
7.03064	-0.276184	0.00106812	
7.03125	-0.276184	0.000610352	
7.03369	-0.276184	0.000610352	
7.03461	-0.27771	0.000305176	
7.03552	-0.279541	0.000152588	
7.03522	-0.280457	0.000762939	
7.03491	-0.280151	0	
7.03522	-0.280762	-0.000152588	
7.03552	-0.283203	-0.000305176	
7.03491	-0.285339	0	
7.03522	-0.285339	0	
7.03491	-0.285034	0.000305176	
7.03461	-0.285339	0.000305176	
7.03491	-0.285339	0.000152588	
7.03613	-0.287476	0.000610352	
7.03644	-0.289307	0.000152588	
7.03888	-0.289917	0.000762939	
7.0401	-0.290833	0.000305176	
7.04071	-0.290833	0.000457764	
7.0401	-0.290222	-0.000152588	
7.04041	-0.292664	-0.000305176	
7.04041	-0.2948	0.000305176	
7.04041	-0.2948	0.000152588	
7.0401	-0.295105	0.000457764	
7.04071	-0.29541	0	
7.04041	-0.2948	0.000152588	
7.0401	-0.297852	0.000762939	
7.0401	-0.299683	0.00137329	
7.0401	-0.300598	0.00106812	
7.0401	-0.300598	0.000152588	
7.04163	-0.300293	0.000762939	
7.04437	-0.302124	0.000152588	
7.04468	-0.304565	0.000457764	
7.0459	-0.305481	0.000152588	
7.04529	-0.304871	0.000305176	
7.04498	-0.304871	0	
7.04498	-0.304871	0.000305176	
7.04498	-0.307312	0.000610352	
7.04529	-0.309448	0.000762939	
7.04529	-0.310059	0.000457764	
7.04529	-0.310669	0.0012207	
7.04529	-0.310059	0.000915527	
7.04529	-0.310364	0.000457764	
7.04529	-0.31189	0.000305176	
7.04529	-0.314941	0.000305176	
7.04651	-0.314941	0.000610352	
7.04895	-0.314941	-0.000152588	
7.04956	-0.314636	-0.000305176	
7.04926	-0.316772	-0.000152588	
7.05078	-0.319519	0.000457764	
7.05048	-0.319214	0.000152588	
7.04987	-0.319214	0	
7.04987	-0.319519	0.000305176	
7.04987	-0.319824	0.000610352	
7.04987	-0.32196	0.000457764	
7.05017	-0.323792	0.000762939	
7.04987	-0.324402	0.000457764	
7.04987	-0.324402	0.000152588	
7.05017	-0.324097	0.000610352	
7.05017	-0.324707	0	
7.05109	-0.327148	0	
7.05414	-0.329285	0.000152588	
7.05566	-0.329285	0.000152588	
7.05505	-0.32959	0.000305176	
7.05566	-0.329285	0.000305176	
7.05444	-0.331421	0.000152588	
7.05536	-0.333557	0.000457764	
7.05505	-0.335083	0.0012207	
7.05505	-0.334778	0.00183105	
7.05505	-0.334167	0.000305176	
7.05475	-0.334473	0.000762939	
7.05566	-0.336304	0	
7.05536	-0.338745	0.000457764	
7.05475	-0.338745	0.000305176	
7.05566	-0.33905	0.000152588	
7.05658	-0.33905	0.000457764	
7.05872	-0.339355	0.000457764	
7.05994	-0.341797	0.000152588	
7.05994	-0.343323	0.000305176	
7.05963	-0.344238	0.000762939	
7.05994	-0.343933	0.000915527	
7.05994	-0.344543	0.000305176	
7.05963	-0.346985	0.000610352	
7.06055	-0.348206	0.000610352	
7.05963	-0.348816	0.000610352	
7.06055	-0.349121	0.000915527	
7.06055	-0.349121	0	
7.06055	-0.348511	-0.000762939	
7.06055	-0.350952	-0.000152588	
7.06146	-0.353394	0.000152588	
7.06329	-0.354614	0.000152588	
7.06482	-0.353699	0.000457764	
7.06543	-0.354309	0.000152588	
7.06482	-0.354309	0.000457764	
7.06512	-0.356445	0.000457764	
7.06451	-0.358276	0.000457764	
7.06512	-0.358887	0.000305176	
7.06451	-0.358582	0.000457764	
7.06482	-0.358582	0.000610352	
7.06543	-0.358582	-0.000305176	
7.06573	-0.361023	-0.000152588	
7.06451	-0.363159	0	
7.06482	-0.36438	0.000305176	
7.06482	-0.36438	-0.000152588	
7.06635	-0.36438	0.000305176	
7.06818	-0.363464	0.000152588	
7.07031	-0.366211	0.000457764	
7.06909	-0.367737	0.00137329	
7.0694	-0.368958	0.00137329	
7.0697	-0.369263	0.000305176	
7.0697	-0.368347	0.000915527	
7.0694	-0.370483	0.000305176	
7.0697	-0.372925	0.000762939	
7.0697	-0.373535	0	
7.0694	-0.374146	0.000152588	
7.07001	-0.37384	0.000305176	
7.0697	-0.37323	0.000305176	
7.07001	-0.375977	0.000305176	
7.07031	-0.377808	0.000152588	
7.07092	-0.378723	0.000457764	
7.07306	-0.378113	0.00137329	
7.07458	-0.379028	0.000457764	
7.0752	-0.379028	0.000762939	
7.0752	-0.378418	0.000762939	
7.0752	-0.380859	0.000152588	
7.07489	-0.38208	0.000610352	
7.0752	-0.383911	-0.000152588	
7.07428	-0.383911	-0.000305176	
7.07458	-0.383606	0	
7.07428	-0.383911	0.000457764	
7.07458	-0.385742	0.000152588	
7.07489	-0.387573	0.000305176	
7.0752	-0.387573	0	
7.0752	-0.388184	0.000762939	
7.07642	-0.387878	0.000610352	
7.07886	-0.388184	0.000152588	
7.07947	-0.39032	0.000457764	
7.08008	-0.392761	0.000305176	
7.07947	-0.393372	0.000305176	
7.08008	-0.393372	0	
7.07977	-0.393372	-0.000305176	
7.07947	-0.392761	0.000457764	
7.07947	-0.395508	0.000305176	
7.07947	-0.397339	0	
7.08008	-0.397949	0.000457764	
7.07916	-0.398254	0	
7.07977	-0.397644	0.000610352	
7.08008	-0.398254	0.00137329	
7.07916	-0.400391	0.00137329	
7.08069	-0.402222	0.000305176	
7.08313	-0.403137	0.0012207	
7.08435	-0.402832	0.000305176	
7.08466	-0.403442	0.000457764	
7.08435	-0.402832	0	
7.08466	-0.404053	0.000457764	
7.08496	-0.405273	0.000152588	
7.08405	-0.40741	0.000152588	
7.08496	-0.40863	0.000152588	
7.08466	-0.40802	0.000457764	
7.08496	-0.407715	0.000762939	
7.08435	-0.40741	0.00106812	
7.08466	-0.409546	0.000610352	
7.08435	-0.412292	0.000457764	
7.08496	-0.413208	0.000610352	
7.08557	-0.412598	0.000457764	
7.08832	-0.412903	0.000610352	
7.08923	-0.412598	0.000305176	
7.08954	-0.412903	-0.000305176	
7.08954	-0.415039	-0.000305176	
7.08984	-0.417786	0.000305176	
7.08893	-0.41748	0.000152588	
7.08984	-0.41748	0	
7.08984	-0.41748	0.000152588	
7.08984	-0.418091	0.000610352	
7.08923	-0.41748	0.000610352	
7.08954	-0.419312	0.000762939	
7.08984	-0.422363	0.000152588	
7.08984	-0.422668	0.000762939	
7.08954	-0.422974	0.000457764	
7.09076	-0.423279	-0.000457764	
7.09381	-0.422974	0	
7.09381	-0.4245	0	
7.09503	-0.426636	0	
7.09442	-0.427856	0	
7.09503	-0.427856	0	
7.09503	-0.427856	-0.000152588	
7.09473	-0.427551	0.000457764	
7.09473	-0.427246	0.0012207	
7.09412	-0.429993	0.000915527	
7.09412	-0.432129	0.000305176	
7.09473	-0.432129	0.000610352	
7.09412	-0.432434	0.000457764	
7.09503	-0.432434	0.000457764	
7.09442	-0.432434	0.000152588	
7.09534	-0.432434	0	
7.09808	-0.43457	0.000152588	
7.09961	-0.437012	0.000457764	
7.10022	-0.437622	-0.000152588	
7.09991	-0.437317	0.000457764	
7.09961	-0.437317	0.000457764	
7.09961	-0.437927	0.0012207	
7.09961	-0.437317	0.000915527	
7.09961	-0.438843	0.000305176	
7.10022	-0.441284	0.000305176	
7.09961	-0.442505	0.000305176	
7.10022	-0.441589	0.000610352	
7.09991	-0.44281	0.000305176	
7.10022	-0.4422	-0.000762939	
7.09839	-0.442505	-0.000457764	
7.09961	-0.4422	-0.000152588	
7.10052	-0.444946	0.000305176	
7.10327	-0.446777	0.000152588	
7.10449	-0.447388	0.000152588	
7.10358	-0.447083	0.000762939	
7.1048	-0.447083	0.000762939	
7.1048	-0.447388	0.00106812	
7.10388	-0.447388	0.000305176	
7.10449	-0.447388	0.000610352	
7.10449	-0.448914	0.000457764	
7.10358	-0.452271	-0.000152588	
7.10449	-0.452271	-0.000152588	
7.10419	-0.452271	0.000305176	
7.10449	-0.452271	0.000152588	
7.1048	-0.452271	0.000305176	
7.10449	-0.451965	0	
7.10449	-0.453796	0.000152588	
7.1051	-0.456238	0.000457764	
7.10815	-0.456543	0.00152588	
7.10938	-0.457153	0.00137329	
7.10907	-0.457153	0.000152588	
7.10968	-0.457153	0.000457764	
7.10968	-0.456848	0.000457764	
7.10968	-0.457458	0.000610352	
7.10907	-0.457153	0.000152588	
7.10938	-0.459595	0.000305176	
7.10938	-0.461731	0.000305176	
7.10938	-0.462036	0.000610352	
7.10938	-0.462341	-0.000152588	
7.10968	-0.462341	0.000457764	
7.10938	-0.462036	0.000457764	
7.10938	-0.461731	0.00106812	
7.1109	-0.462341	0.000305176	
7.11273	-0.463867	0.000457764	
7.11365	-0.466614	0.000457764	
7.11487	-0.466614	0.000305176	
7.11365	-0.467224	0.000457764	
7.11426	-0.467224	0.000305176	
7.11365	-0.466614	-0.000457764	
7.11487	-0.467529	0	
7.11426	-0.466919	0	
7.11365	-0.466614	0.000152588	
7.11426	-0.467224	0.000305176	
7.11334	-0.469055	0.000457764	
7.11426	-0.471191	0.000457764	
7.11365	-0.471191	0.000457764	
7.11426	-0.471497	0.000457764	
7.11426	-0.471497	0.000152588	
7.11426	-0.472107	0.000457764	
7.11792	-0.471497	0.000457764	
7.11853	-0.471802	0	
7.11884	-0.472412	-0.000457764	
7.11945	-0.472107	0.000152588	
7.11914	-0.474548	0.000152588	
7.11914	-0.476379	0.000305176	
7.11945	-0.476685	0.000305176	
7.11884	-0.475769	-0.000305176	
7.11914	-0.476685	0.000457764	
7.11884	-0.476379	0.0012207	
7.11945	-0.476379	0.00106812	
7.11914	-0.47699	0.000305176	
7.11945	-0.476685	0.000915527	
7.11914	-0.476074	0.000305176	
7.11884	-0.476074	0.000152588	
7.12006	-0.476685	0.000305176	
7.1228	-0.476685	0.000152588	
7.12402	-0.478516	-0.000152588	
7.12402	-0.480957	0.000610352	
7.12341	-0.481567	0.000152588	
7.12402	-0.482178	0.000457764	
7.12463	-0.481262	0.000457764	
7.12433	-0.481262	0.00106812	
7.12372	-0.481567	0.000457764	
7.12402	-0.481262	0.000610352	
7.12463	-0.481262	0.000457764	
7.12341	-0.481567	0.000305176	
7.12341	-0.481262	0.000915527	
7.12402	-0.481567	0.000457764	
7.12433	-0.481567	-0.000305176	
7.12402	-0.481567	-0.000610352	
7.12433	-0.481262	0.000152588	
7.12494	-0.481567	0.000305176	
7.12738	-0.481873	0	
7.12921	-0.480957	0.000457764	
7.12891	-0.481567	0.000457764	
7.12799	-0.480652	0.000305176	
7.1286	-0.481567	0.000610352	
7.12952	-0.481262	0.000305176	
7.12952	-0.481262	0.000152588	
7.12891	-0.480957	0.000305176	
7.12921	-0.480652	0	
7.12952	-0.481262	-0.000152588	
7.12921	-0.481262	0.000457764	
7.1286	-0.481567	-0.000152588	
7.12891	-0.481567	0.000305176	
7.1286	-0.482178	0.000152588	
7.12891	-0.480957	0	
7.12982	-0.481262	0.000610352	
7.13287	-0.480652	0.0012207	
7.13409	-0.480957	0.00137329	
7.1344	-0.481873	0.000610352	
7.13348	-0.481567	0.000915527	
7.13409	-0.481567	0.000762939	
7.13379	-0.480957	0.000305176	
7.13379	-0.480652	0.000305176	
7.1344	-0.481567	0.000152588	
7.1344	-0.480957	0.000457764	
7.13318	-0.481567	0.000457764	
7.1344	-0.481262	0.000305176	
7.13409	-0.480652	0.000305176	
7.13348	-0.479431	0.000305176	
7.13318	-0.47699	0.00106812	
7.13409	-0.476074	0.000305176	
7.13379	-0.476074	0.000305176	
7.13501	-0.476685	0.000457764	
7.13745	-0.476685	0.000305176	
7.13867	-0.476379	0.000762939	
7.13959	-0.476685	0.000305176	
7.13867	-0.476074	-0.000152588	
7.13959	-0.474243	-0.000305176	
7.13867	-0.472717	0.000152588	
7.13806	-0.471497	0.000610352	
7.13928	-0.471497	0.000152588	
7.13928	-0.471497	0.000305176	
7.13837	-0.471802	0.000305176	
7.13928	-0.469055	0.000762939	
7.13867	-0.467529	0.000610352	
7.13928	-0.466919	0.000305176	
7.13867	-0.466614	0.000610352	
7.13928	-0.466919	0.000610352	
7.13989	-0.464783	-0.000152588	
7.14203	-0.462341	-0.000152588	
7.14355	-0.462036	0	
7.14417	-0.462036	0.000152588	
7.14417	-0.461731	0	
7.14355	-0.460205	0.000457764	
7.14417	-0.458069	0.000305176	
7.14355	-0.457458	0.000305176	
7.14386	-0.457458	0.00152588	
7.14417	-0.455017	0.0012207	
7.14386	-0.452881	0.000457764	
7.14417	-0.452271	0.00106812	
7.14386	-0.449524	0.000457764	
7.14386	-0.447998	0.000610352	
7.14355	-0.446777	0.000152588	
7.14355	-0.444946	0.000305176	
7.14417	-0.442505	0.000152588	
7.14478	-0.4422	0.000305176	
7.14844	-0.440063	0.000305176	
7.14844	-0.437927	0	
7.14905	-0.437317	0.000305176	
7.14905	-0.435486	0.0012207	
7.14874	-0.432739	0.000457764	
7.14874	-0.432434	0.000610352	
7.14935	-0.430603	0.000152588	
7.14935	-0.428467	0.000610352	
7.14905	-0.42511	0.000610352	
7.14935	-0.422974	0.000762939	
7.14752	-0.422668	-0.000762939	
7.14935	-0.420837	-0.000305176	
7.14844	-0.418396	0	
7.14844	-0.415649	0.000610352	
7.14874	-0.413208	0.000152588	
7.14874	-0.410156	0.000152588	
7.14935	-0.408325	0.000610352	
7.1521	-0.404968	0.000762939	
7.15363	-0.403748	0.000610352	
7.15393	-0.401001	0.000457764	
7.15424	-0.39856	0.000457764	
7.15393	-0.396118	0.000457764	
7.15332	-0.394287	-0.000152588	
7.15302	-0.391541	0.000152588	
7.15332	-0.388794	0	
7.15363	-0.386047	-0.000305176	
7.15393	-0.383911	0	
7.15363	-0.380859	0	
7.15332	-0.376587	0	
7.15393	-0.374756	0.000457764	
7.15424	-0.371704	0.00137329	
7.15363	-0.369568	0.00106812	
7.15363	-0.366821	0.000305176	
7.15515	-0.362854	0.00106812	
7.15729	-0.358887	0.000152588	
7.1582	-0.357056	0.000610352	
7.15881	-0.352173	0.000610352	
7.1582	-0.349731	0.000305176	
7.15881	-0.347595	0.000457764	
7.15881	-0.343323	0.000152588	
7.1582	-0.340271	0.000305176	
7.15881	-0.336914	0.000305176	
7.15881	-0.332642	0.000305176	
7.15881	-0.328064	0.00106812	
7.15881	-0.325317	0.000762939	
7.15881	-0.321655	0.000457764	
7.1582	-0.317993	0.000305176	
7.1582	-0.31311	0.000457764	
7.15881	-0.310669	0.000610352	
7.1582	-0.308228	0	
7.15912	-0.303345	-0.000762939	
7.16187	-0.298462	-0.000610352	
7.1637	-0.293884	0	
7.164	-0.291443	0.000305176	
7.1637	-0.289307	0.000152588	
7.16431	-0.284119	0	
7.1637	-0.278931	0.000457764	
7.1637	-0.274353	0.000457764	
7.1637	-0.268555	0.000152588	
7.1637	-0.264282	0.000305176	
7.16309	-0.261536	0.000152588	
7.1637	-0.258789	0.000305176	
7.16339	-0.254517	0.000152588	
7.1637	-0.249329	-0.000152588	
7.16339	-0.245056	0.000152588	
7.1637	-0.240173	0.000457764	
7.16339	-0.234375	0.000152588	
7.1637	-0.230103	0.000152588	
7.16522	-0.224915	0	
7.16705	-0.220947	0.000762939	
7.16858	-0.215454	0.0012207	
7.16888	-0.210266	0.00167847	
7.16858	-0.205994	0.000305176	
7.16858	-0.2005	0.000610352	
7.16919	-0.195923	0.000610352	
7.16888	-0.189514	0.000762939	
7.16858	-0.186157	0.000305176	
7.16919	-0.181274	0.000305176	
7.16827	-0.176697	0.000152588	
7.16949	-0.170898	0.000305176	
7.16827	-0.166321	0.000457764	
7.16888	-0.161438	0.000305176	
7.16888	-0.156555	0.000305176	
7.16858	-0.151978	0.00106812	
7.16858	-0.147095	0.000457764	
7.16949	-0.141602	0.000152588	
7.17255	-0.137024	0.000762939	
7.17346	-0.132141	0.000152588	
7.17377	-0.127258	0.000762939	
7.17377	-0.122375	0.000305176	
7.17377	-0.117188	-0.000457764	
7.17316	-0.110168	-0.000457764	
7.17346	-0.103149	0	
7.17377	-0.0979614	0.000305176	
7.17316	-0.0927734	0.000457764	
7.17316	-0.0875854	0.000152588	
7.17346	-0.0827026	0.000610352	
7.17316	-0.078125	0.000305176	
7.17285	-0.0735474	0.000610352	
7.17377	-0.0662231	0.000152588	
7.17407	-0.0585938	0.000152588	
7.17285	-0.0537109	0.000762939	
7.17346	-0.0476074	-0.000152588	
7.17468	-0.043335	0	
7.17651	-0.0390625	0.000152588	
7.17804	-0.0317383	0.000152588	
7.17926	-0.0244141	0.000152588	
7.17896	-0.0198364	0	
7.17834	-0.0140381	-0.000152588	
7.17834	-0.0088501	0.000610352	
7.17896	-0.00244141	0.000915527	
7.17865	0.00518799	0.00137329	
7.17896	0.010376	0.000457764	
7.17896	0.0152588	0.000762939	
7.17896	0.0201416	0.000762939	
7.17834	0.0274658	0.000457764	
7.17773	0.0341797	0.000457764	
7.17865	0.0396729	0.000152588	
7.17773	0.045166	-0.000152588	
7.17896	0.0491333	0.000457764	
7.17834	0.0564575	0.000457764	
7.17896	0.0634766	0.000305176	
7.18262	0.0683594	0.000610352	
7.18292	0.0744629	0.0012207	
7.18353	0.0805664	0.000152588	
7.18323	0.0875854	0.000305176	
7.18384	0.0927734	0.000305176	
7.18384	0.0979614	0.000305176	
7.18262	0.105286	0.000610352	
7.18353	0.112	0	
7.18353	0.117493	-0.000610352	
7.18353	0.122375	-0.000457764	
7.18323	0.129089	0	
7.18384	0.136414	0.000152588	
7.18353	0.142517	-0.000152588	
7.18292	0.147095	0.000305176	
7.18353	0.154419	0.000457764	
7.18353	0.160828	0.000457764	
7.18262	0.166321	0.000610352	
7.18445	0.171509	0.000457764	
7.18719	0.178833	0.000152588	
7.18872	0.185852	0.000762939	
7.18842	0.19104	-0.000152588	
7.18842	0.195618	0.000305176	
7.18842	0.2005	0	
7.18781	0.207825	0.000305176	
7.18781	0.215149	0.000152588	
7.18811	0.220337	0.000305176	
7.1875	0.225525	0.000305176	
7.18842	0.231934	0.000152588	
7.18811	0.240173	0.00137329	
7.18842	0.244751	0.0012207	
7.18811	0.249329	0.000457764	
7.18781	0.256653	0.000762939	
7.18811	0.264282	0.000610352	
7.18872	0.26947	0.000610352	
7.18781	0.274658	0.000152588	
7.18872	0.281677	0.000305176	
7.19177	0.288696	-0.000305176	
7.1933	0.293884	0.000305176	
7.19269	0.298462	0.000457764	
7.1933	0.305786	0.000457764	
7.19299	0.312805	0.000610352	
7.1936	0.318604	0.00106812	
7.19299	0.323181	0.000915527	
7.19299	0.327759	0.000915527	
7.19391	0.334473	0.000457764	
7.19391	0.342407	0.000457764	
7.19269	0.3479	0.000915527	
7.19299	0.353699	0.000610352	
7.1936	0.358276	-0.000305176	
7.1936	0.36438	-0.000457764	
7.1936	0.371399	0.000152588	
7.19299	0.377502	0.000305176	
7.19299	0.382385	0.000152588	
7.19452	0.386963	0.000305176	
7.19666	0.392151	0.000305176	
7.19757	0.39917	0.000457764	
7.19818	0.406494	0.000457764	
7.1991	0.412292	0.000305176	
7.19849	0.417175	0.000305176	
7.19788	0.421143	0.000610352	
7.19818	0.426331	0	
7.19788	0.43335	0.000152588	
7.19818	0.440369	0.000305176	
7.19757	0.446472	0.000152588	
7.19788	0.45105	0	
7.19788	0.455627	0	
7.19788	0.461426	0.000152588	
7.19849	0.465698	0.000305176	
7.19849	0.469971	0.00106812	
7.19818	0.47699	0.0012207	
7.19788	0.484009	0.000457764	
7.19788	0.490417	0.000915527	
7.1994	0.494995	0.000915527	
7.20184	0.499878	0.000610352	
7.20306	0.504761	0.000152588	
7.20337	0.509338	0	
7.20367	0.514526	0.000457764	
7.20276	0.519409	0.000305176	
7.20337	0.523987	0.000457764	
7.20245	0.52887	0.000152588	
7.20276	0.533447	0.000610352	
7.20306	0.539856	0.0012207	
7.20306	0.544434	0.000457764	
7.20306	0.549011	0.000610352	
7.20337	0.553894	0.000457764	
7.20337	0.560608	0.000457764	
7.20337	0.568542	0.000610352	
7.20398	0.573425	0.000152588	
7.20367	0.577698	-0.000457764	
7.20276	0.58136	-0.000457764	
7.20367	0.583801	0	
7.20428	0.588074	0.000305176	
7.20703	0.592651	0	
7.20795	0.59845	0.000305176	
7.20795	0.603027	0.000152588	
7.20795	0.608215	0.000457764	
7.20825	0.613098	0.000762939	
7.20856	0.617981	0.000305176	
7.20856	0.622559	0.000305176	
7.20825	0.626831	0.000305176	
7.20856	0.632324	0	
7.20795	0.637512	-0.000152588	
7.20734	0.641785	0	
7.20856	0.646973	0.000457764	
7.20734	0.649719	0.000152588	
7.20825	0.652161	0.000152588	
7.20795	0.656433	-0.000152588	
7.20795	0.661316	0.000152588	
7.20856	0.666504	0.00106812	
7.20825	0.671082	0.00152588	
7.20886	0.675964	0.000457764	
7.2113	0.679626	0.000457764	
7.21283	0.682068	0.000610352	
7.21222	0.686646	0.000762939	
7.21252	0.690918	0.000305176	
7.21344	0.696106	0.000152588	
7.21283	0.698547	0.000152588	
7.21313	0.700989	0.000610352	
7.21344	0.705566	0.000305176	
7.21313	0.710449	0.000457764	
7.21313	0.715637	0.000610352	
7.21252	0.718384	0.0012207	
7.21313	0.720825	0.000305176	
7.21344	0.725708	0.000610352	
7.21313	0.728149	0.000152588	
7.21313	0.730896	0.000762939	
7.21252	0.735474	0.000610352	
7.21283	0.740051	0.000610352	
7.21283	0.742798	-0.000305176	
7.21313	0.746155	-0.000457764	
7.21649	0.749512	-0.000152588	
7.2168	0.752869	0.000610352	
7.21802	0.75531	0	
7.21771	0.759888	0.000152588	
7.21863	0.762939	0.000305176	
7.21832	0.765076	0.000762939	
7.21802	0.769958	0.000457764	
7.21832	0.772705	0.000152588	
7.21832	0.775757	0.000610352	
7.21863	0.777283	0.000762939	
7.21863	0.779724	-0.000152588	
7.21832	0.784302	0	
7.21832	0.786133	-0.000152588	
7.21832	0.7901	0.000152588	
7.21741	0.791931	0.000152588	
7.21771	0.794678	0.000305176	
7.21863	0.796814	0.000152588	
7.21832	0.799866	0.000152588	
7.21741	0.802307	0.00106812	
7.21924	0.803833	0.00152588	
7.22107	0.80658	0.000305176	
7.22229	0.809937	0.000457764	
7.2229	0.811768	0.000457764	
7.22321	0.813904	0.000610352	
7.2229	0.816345	0.000305176	
7.2229	0.819397	0.000152588	
7.2226	0.822144	0.000305176	
7.2229	0.823975	0.000610352	
7.2229	0.826721	0	
7.22321	0.829163	0	
7.2229	0.830688	0.000305176	
7.2229	0.83252	0.00106812	
7.22229	0.834045	0.000457764	
7.2229	0.836792	0.000610352	
7.22351	0.838928	0.000610352	
7.22321	0.841064	0.000305176	
7.22229	0.84137	0.000610352	
7.2229	0.844727	0.000457764	
7.22412	0.845642	-0.000305176	
7.22717	0.846252	-0.000457764	
7.22687	0.848083	-0.000152588	
7.22778	0.85144	0.000762939	
7.22809	0.85144	0.000152588	
7.22839	0.852966	0.000305176	
7.22778	0.855713	0.000152588	
7.22748	0.856628	0.000610352	
7.22778	0.858459	0.000762939	
7.22809	0.860596	0.000305176	
7.22809	0.860901	0.000457764	
7.22748	0.860901	0.000457764	
7.22839	0.863037	-0.000152588	
7.22778	0.865784	0	
7.229	0.866089	0.000305176	
7.22839	0.865479	0.000305176	
7.22778	0.868225	0.000305176	
7.22748	0.870972	0.000152588	
7.22839	0.870972	0.000610352	
7.22748	0.870972	0.000305176	
7.22748	0.871277	0.000762939	
7.229	0.870972	0.0012207	
7.23175	0.872192	0.000457764	
7.23236	0.874939	0.000457764	
7.23297	0.875549	0.00106812	
7.23358	0.875854	0.000305176	
7.23297	0.876465	0.000305176	
7.23236	0.875854	0	
7.23328	0.87616	0.000305176	
7.23297	0.87616	0.000762939	
7.23267	0.877686	0	
7.23297	0.880127	0.000305176	
7.23328	0.880432	0.000152588	
7.23236	0.881042	0.00106812	
7.23358	0.880432	0.000610352	
7.23267	0.881042	0.000762939	
7.23297	0.880432	0.000305176	
7.23267	0.881042	0.000305176	
7.23328	0.880737	0.000610352	
7.23297	0.880737	0.000152588	
7.23297	0.880737	-0.000457764	
7.23389	0.880737	-0.000457764	
7.23633	0.880737	-0.000152588	
7.23694	0.881042	0.000457764	
7.23785	0.880432	0	
7.23785	0.880432	0.000152588	
7.23755	0.880737	0.000305176	
7.23724	0.880432	0.000610352	
7.23816	0.881042	0.000610352	
7.23755	0.880127	0.000305176	
7.23816	0.880432	0.000457764	
7.23785	0.881042	0.000305176	
7.23785	0.880432	-0.000305176	
7.23755	0.879211	0	
7.23755	0.877075	0	
7.23755	0.875854	0.000152588	
7.23724	0.87616	0.000152588	
7.23694	0.874939	0	
7.23755	0.874939	0.000457764	
7.23755	0.875854	0.000152588	
7.23755	0.875854	0.0012207	
7.23755	0.874023	0.0012207	
7.23816	0.872192	0.000610352	
7.24152	0.871277	0.000915527	
7.24243	0.871582	0.000915527	
7.24304	0.871582	0.000762939	
7.24304	0.871582	0.000305176	
7.24243	0.86853	0.000305176	
7.24274	0.867004	0.000305176	
7.24274	0.866394	0.000305176	
7.24213	0.865784	0.000305176	
7.24243	0.866089	0.000457764	
7.24274	0.864258	0.000457764	
7.24274	0.861816	0.00106812	
7.24243	0.861511	0.000457764	
7.24213	0.861511	0.000762939	
7.24213	0.85968	0.000457764	
7.24274	0.857239	0.000305176	
7.24213	0.856628	0.000457764	
7.24304	0.856323	0.000457764	
7.24274	0.854492	-0.000305176	
7.24274	0.852356	-0.000152588	
7.24243	0.85144	-0.000152588	
7.24365	0.849915	0.000305176	
7.24609	0.846863	0.000152588	
7.24731	0.846558	-0.000152588	
7.24762	0.844727	0.000610352	
7.24762	0.84198	0.000762939	
7.24762	0.84198	0.000762939	
7.24762	0.839233	0.000762939	
7.24731	0.837097	0.000305176	
7.24762	0.837097	0.000610352	
7.24731	0.835571	0.000305176	
7.24792	0.83252	0.000457764	
7.24731	0.831909	-0.000152588	
7.24762	0.829468	0.000152588	
7.24701	0.827332	0	
7.24762	0.824585	0.000152588	
7.24731	0.822754	0	
7.24823	0.822144	0	
7.24701	0.819397	0.00106812	
7.24762	0.817566	0.00137329	
7.24731	0.814819	0.000305176	
7.24701	0.813293	0.000610352	
7.24823	0.810852	0.000915527	
7.24915	0.8078	0.000457764	
7.25128	0.80719	0.000457764	
7.25189	0.805054	0.000305176	
7.2522	0.803223	0	
7.25281	0.800171	0.000457764	
7.25311	0.798035	0.000457764	
7.2525	0.794983	-0.000152588	
7.2525	0.792847	0.000305176	
7.25159	0.790405	0.000915527	
7.2522	0.788574	0.000762939	
7.25281	0.785522	0.000915527	
7.2525	0.783081	0.000305176	
7.2525	0.780945	0.000915527	
7.25281	0.779724	0.000610352	
7.2522	0.776062	0.000762939	
7.2525	0.773926	-0.000305176	
7.2522	0.770874	-0.000305176	
7.25189	0.768738	0	
7.2522	0.766296	0.000610352	
7.25311	0.76355	0	
7.25281	0.761719	0.000152588	
7.25281	0.759277	0.000305176	
7.25372	0.75592	0.000457764	
7.25647	0.754089	0.000762939	
7.25647	0.751343	0.000610352	
7.25739	0.746765	0.000305176	
7.25769	0.744324	0.000610352	
7.25708	0.741577	0.000152588	
7.258	0.739441	0.000305176	
7.258	0.736694	0.000152588	
7.25739	0.734253	-0.000152588	
7.25708	0.731506	0.000305176	
7.25708	0.727539	-0.000152588	
7.25708	0.724792	-0.000152588	
7.25769	0.722961	0.000457764	
7.25769	0.719299	0.00106812	
7.25769	0.716858	0.00137329	
7.25769	0.713196	0.000457764	
7.25708	0.710449	0.000610352	
7.25739	0.706787	0.000457764	
7.25708	0.705566	0.000610352	
7.25739	0.702209	0.000305176	
7.25677	0.697937	0.000305176	
7.258	0.69458	-0.000305176	
7.25708	0.692749	0.000305176	
7.25861	0.688171	0.000305176	
7.26074	0.68573	0.000152588	
7.26196	0.682373	0.000305176	
7.26288	0.678711	0.000610352	
7.26257	0.675964	0.000762939	
7.26288	0.672913	0.000457764	
7.26288	0.670776	0.000610352	
7.26227	0.667725	0.000457764	
7.26227	0.662842	0.000762939	
7.26227	0.6604	0.000457764	
7.26166	0.658264	0	
7.26257	0.653381	-0.000762939	
7.26166	0.65094	0	
7.26257	0.648193	0.000305176	
7.26257	0.644226	0.000152588	
7.26227	0.641479	0	
7.26257	0.637512	0.000152588	
7.26196	0.633545	0.000457764	
7.26257	0.628662	0.000762939	
7.26227	0.626526	0.000457764	
7.26227	0.623474	0.000457764	
7.26196	0.619202	0.000457764	
7.26227	0.616455	0.000152588	
7.26227	0.613708	0.000457764	
7.26349	0.609741	0.000152588	
7.26654	0.606689	0.000152588	
7.26715	0.603638	0.000152588	
7.26715	0.599365	0	
7.26715	0.596924	0.000305176	
7.26685	0.593872	0.000152588	
7.26715	0.588989	0.000915527	
7.26746	0.585938	0.0012207	
7.26746	0.58197	0.000305176	
7.26746	0.579224	0.000762939	
7.26715	0.575256	0.000915527	
7.26807	0.572815	0.000915527	
7.26715	0.569763	0.000457764	
7.26746	0.565186	0.000152588	
7.26715	0.562134	0.000305176	
7.26746	0.559998	0.000305176	
7.26654	0.555725	0.000457764	
7.26715	0.550537	0	
7.26746	0.547485	0.000305176	
7.26746	0.545349	0.000762939	
7.26685	0.540466	0.000762939	
7.26654	0.535583	0.000457764	
7.26746	0.532532	0.000915527	
7.26715	0.530396	0.000457764	
7.26776	0.526123	0.000610352	
7.27112	0.522766	0.000152588	
7.27234	0.520935	-0.000457764	
7.27173	0.516052	-0.000152588	
7.27295	0.510864	0.000152588	
7.27234	0.508423	0.000457764	
7.27203	0.505981	0	
7.27173	0.501709	-0.000152588	
7.27203	0.498352	0	
7.27203	0.496521	0.000457764	
7.27234	0.491943	0.000915527	
7.27203	0.486755	0.000152588	
7.27203	0.484314	0.000152588	
7.27173	0.481262	0.000305176	
7.27203	0.476685	0	
7.27234	0.473633	0.000152588	
7.27264	0.470886	-0.000152588	
7.27203	0.467529	0	
7.27142	0.462646	0.000152588	
7.27234	0.459595	0.000152588	
7.27142	0.457153	0.000305176	
7.27203	0.452881	0.000152588	
7.27173	0.447693	0.0012207	
7.27203	0.444946	0.00106812	
7.27203	0.4422	0.000762939	
7.27203	0.437927	0.000915527	
7.27325	0.435486	0.000457764	
7.2757	0.432129	0.000457764	
7.27692	0.428162	0.000762939	
7.27692	0.423279	0.000305176	
7.27692	0.420837	0.000152588	
7.27692	0.41748	0.000762939	
7.27661	0.412903	0.000610352	
7.27753	0.410461	0.000152588	
7.27722	0.40802	0.000305176	
7.27722	0.403137	0.00106812	
7.27753	0.400696	0.000762939	
7.27661	0.39856	0.000610352	
7.27692	0.393982	0.000457764	
7.27692	0.389404	0.000610352	
7.27722	0.386658	0.000305176	
7.27722	0.383301	0.000457764	
7.27692	0.379028	-0.000152588	
7.27722	0.376282	-0.000610352	
7.27631	0.37384	-0.000152588	
7.27661	0.369568	0.000305176	
7.27722	0.366821	0.000457764	
7.27722	0.36377	0	
7.27753	0.359192	0.000152588	
7.27722	0.354309	0.000305176	
7.27692	0.352173	0.000457764	
7.27814	0.349121	0.000457764	
7.27814	0.344543	0.000610352	
7.28119	0.342712	0.000610352	
7.2818	0.339355	0	
7.2821	0.334167	0.000305176	
7.28302	0.332031	0	
7.28119	0.32959	0.000305176	
7.28119	0.324707	0	
7.2818	0.322876	-0.000152588	
7.2821	0.319824	-0.000152588	
7.2821	0.315857	0.000305176	
7.2818	0.3125	0.0012207	
7.2821	0.310059	0.00152588	
7.28149	0.306091	0.000610352	
7.2821	0.30304	0.000610352	
7.28241	0.299988	0.000610352	
7.28271	0.296021	0.000457764	
7.2821	0.292969	0.000610352	
7.28241	0.290527	0	
7.2818	0.28595	0.000305176	
7.2821	0.283508	0.000762939	
7.28119	0.280457	0.000152588	
7.2821	0.276184	0	
7.28271	0.273438	0.000610352	
7.2821	0.270691	0.000610352	
7.2818	0.266724	0.000610352	
7.2821	0.263977	0.000762939	
7.2821	0.26062	0.000457764	
7.2821	0.259094	0.000305176	
7.28271	0.255432	0.000762939	
7.28577	0.25177	0.000457764	
7.28699	0.248413	-0.000457764	
7.28638	0.245972	-0.000610352	
7.28668	0.241699	0.000152588	
7.28668	0.238953	0.000305176	
7.28668	0.236511	0	
7.28699	0.233765	0	
7.28699	0.231323	0	
7.28668	0.227356	0.000610352	
7.28668	0.224915	0.000762939	
7.28729	0.221863	0.000457764	
7.28668	0.21759	0.000610352	
7.28699	0.214233	0.000457764	
7.2876	0.212097	0	
7.28638	0.209351	0.000152588	
7.28699	0.206909	-0.000152588	
7.28699	0.204468	0	
7.28729	0.201721	0	
7.28607	0.197754	0.000152588	
7.28668	0.194397	0	
7.2876	0.19165	0.000305176	
7.2876	0.189819	0.000915527	
7.28668	0.187073	0.0012207	
7.2876	0.182495	0.000610352	
7.28699	0.180969	0.000610352	
7.28729	0.177307	0.000457764	
7.28668	0.175476	0.000457764	
7.28668	0.172729	0.000762939	
7.28821	0.169983	0.000305176	
7.29034	0.167542	0.000152588	
7.29187	0.165405	0.000610352	
7.29156	0.162659	0.000152588	
7.29218	0.158386	0.000152588	
7.29218	0.155945	0.000305176	
7.29218	0.153198	0.000610352	
7.29095	0.151062	0.000610352	
7.29187	0.148315	0.000610352	
7.29126	0.145874	0.000457764	
7.29187	0.143127	0.000457764	
7.29187	0.140991	0.000610352	
7.29156	0.13916	0.000610352	
7.29156	0.136108	-0.000152588	
7.29187	0.133362	-0.000610352	
7.29156	0.13031	-0.000152588	
7.29187	0.128174	0.000762939	
7.29218	0.123901	0	
7.29126	0.121155	0.000152588	
7.29156	0.118713	0.000305176	
7.29156	0.116577	0.000152588	
7.29187	0.114441	0.000305176	
7.29187	0.111694	0.000457764	
7.29218	0.109253	0.000915527	
7.29156	0.106201	0.000305176	
7.29126	0.10376	-0.000152588	
7.29126	0.101624	0.000457764	
7.29248	0.0991821	0	
7.29218	0.0967407	0.000305176	
7.29187	0.0967407	0.000305176	
7.29156	0.0946045	-0.000152588	
7.29279	0.0918579	0.000610352	
7.29523	0.0894165	0.000457764	
7.29675	0.0872803	0.000457764	
7.29736	0.0845337	0.00152588	
7.29706	0.0817871	0.000610352	
7.29706	0.0796509	0.000610352	
7.29645	0.078125	0.000762939	
7.29706	0.0744629	0.000305176	
7.29675	0.072937	0.000305176	
7.29706	0.0704956	0.000152588	
7.29706	0.0689697	0.000152588	
7.29675	0.0656128	0.000152588	
7.29767	0.0634766	0.000152588	
7.29706	0.0622559	0.000305176	
7.29645	0.0604248	0	
7.29706	0.0582886	0.000610352	
7.29706	0.055542	0.000915527	
7.29736	0.0540161	0.000762939	
7.29706	0.0506592	0.000152588	
7.29675	0.0491333	0.000457764	
7.29645	0.0485229	0.000457764	
7.29614	0.0460815	0.000610352	
7.29736	0.043335	-0.000152588	
7.29675	0.0408936	-0.000610352	
7.29675	0.0378418	-0.000152588	
7.29675	0.0360107	0.000762939	
7.29706	0.0335693	0	
7.29675	0.0332642	0	
7.29675	0.0308228	0.000152588	
7.29675	0.0286865	0.000610352	
7.29645	0.0256348	0.000305176	
7.29767	0.0244141	0.000305176	
7.29645	0.0238037	0.000610352	
7.29858	0.020752	0.000457764	
7.30011	0.0186157	0	
7.30164	0.0164795	0.000457764	
7.30164	0.0140381	-0.000457764	
7.30194	0.0134277	-0.000152588	
7.30194	0.0109863	0.000305176	
7.30133	0.00946045	0.000152588	
7.30164	0.0088501	0.000152588	
7.30194	0.00640869	0	
7.30103	0.00366211	0.000915527	
7.30133	0.00152588	0.00137329	
7.30164	-0.000610352	0.000762939	
7.30164	-0.000915527	0.000610352	
7.30164	-0.00274658	0.000762939	
7.30194	-0.00549316	0.000762939	
7.30133	-0.00610352	0.000610352	
7.30194	-0.00762939	0.000152588	
7.30133	-0.00976563	0	
7.30194	-0.0106812	0.000457764	
7.30225	-0.0134277	0	
7.30103	-0.0146484	0	
7.30103	-0.015564	0.000152588	
7.30164	-0.0177002	0.000762939	
7.30194	-0.0198364	0.000457764	
7.30133	-0.0210571	0.000610352	
7.30194	-0.022583	0.000610352	
7.30225	-0.0250244	0.000762939	
7.30194	-0.0259399	0.000457764	
7.30194	-0.0283813	0.000457764	
7.30225	-0.0292969	-0.000152588	
7.30133	-0.0308228	-0.000305176	
7.30225	-0.0326538	-0.000152588	
7.30194	-0.03479	0.000457764	
7.30194	-0.0350952	0	
7.30194	-0.0366211	0.000457764	
7.30194	-0.0396729	0.000152588	
7.30194	-0.039978	0.000610352	
7.30133	-0.0427246	0.000457764	
7.30286	-0.0445557	0.000152588	
7.30591	-0.045166	0.000457764	
7.30743	-0.0473022	0.000915527	
7.30652	-0.0494385	0.000152588	
7.30713	-0.0506592	0.000305176	
7.30652	-0.050354	-0.000305176	
7.30743	-0.0521851	0.000305176	
7.30682	-0.0546265	0	
7.3056	-0.0552368	0.000305176	
7.30652	-0.0567627	0.000610352	
7.30621	-0.0592041	0.000305176	
7.30621	-0.0601196	0.000915527	
7.30713	-0.0622559	0.00167847	
7.30652	-0.0650024	0.000457764	
7.30591	-0.0646973	0.000610352	
7.30621	-0.0646973	0.000762939	
7.30682	-0.0674438	0.000610352	
7.30621	-0.0695801	0.000610352	
7.30713	-0.0692749	0.000152588	
7.30743	-0.0717163	0.000152588	
7.30713	-0.0747681	0.000457764	
7.30743	-0.0750732	0	
7.30682	-0.0747681	0.000305176	
7.30743	-0.0762939	0.000152588	
7.30713	-0.0784302	0.000457764	
7.30713	-0.0793457	0.000457764	
7.30682	-0.0796509	0.000915527	
7.30713	-0.0811768	0.000305176	
7.30682	-0.0836182	0.000610352	
7.30621	-0.0845337	0.000610352	
7.30713	-0.0845337	0.000152588	
7.3056	-0.0866699	0	
7.30652	-0.088501	-0.000305176	
7.30682	-0.0900269	-0.000305176	
7.30652	-0.0918579	0.000305176	
7.30682	-0.0939941	0.000305176	
7.30652	-0.0946045	0.000152588	
7.30682	-0.0946045	0.000305176	
7.30652	-0.0961304	0.000457764	
7.30652	-0.0985718	0.000457764	
7.30682	-0.098877	0.000305176	
7.30682	-0.0991821	0.000305176	
7.30774	-0.100708	0.000762939	
7.30652	-0.103455	0	
7.30774	-0.104675	0.000457764	
7.31079	-0.10437	0	
7.3111	-0.10376	0.000305176	
7.31171	-0.105591	0.000305176	
7.31232	-0.108948	0.000305176	
7.31171	-0.109558	0.000457764	
7.31171	-0.108948	0.000152588	
7.3114	-0.111389	0.00106812	
7.31201	-0.112915	0.00137329	
7.31201	-0.113831	0.000457764	
7.31201	-0.114136	0.000305176	
7.31171	-0.115662	0.000762939	
7.31201	-0.118103	0.000762939	
7.31232	-0.119019	0	
7.31171	-0.119934	0.000152588	
7.31171	-0.12085	0.000457764	
7.3114	-0.123596	0.000305176	
7.3114	-0.123901	0.000152588	
7.3114	-0.123596	0.000152588	
7.31171	-0.124512	0.000457764	
7.3114	-0.126343	0.000915527	
7.31171	-0.128174	0.000915527	
7.31201	-0.128174	0.000457764	
7.31171	-0.128479	0.000610352	
7.31171	-0.129089	0.000762939	
7.31171	-0.130615	0.000305176	
7.31201	-0.132446	0.000457764	
7.31232	-0.133362	0	
7.31171	-0.133057	-0.000457764	
7.3114	-0.135498	0	
7.31171	-0.137939	0.000762939	
7.31171	-0.138855	0.000305176	
7.3114	-0.13855	0.000152588	
7.31171	-0.13916	0	
7.31171	-0.140686	0.00106812	
7.31171	-0.142517	0.000305176	
7.31171	-0.143738	0.000457764	
7.31201	-0.143433	0.000305176	
7.31201	-0.143433	0.000610352	
7.3111	-0.145264	-0.000152588	
7.3111	-0.1474	0.000152588	
7.31232	-0.148926	-0.000152588	
7.31171	-0.148621	0.000305176	
7.3114	-0.148315	0.000305176	
7.31232	-0.150757	0.000305176	
7.31171	-0.152588	0.000610352	
7.3114	-0.153503	0	
7.3114	-0.153198	0.000915527	
7.31171	-0.153198	0.0012207	
7.31201	-0.155945	0.000610352	
7.31201	-0.157166	0.000610352	
7.3114	-0.158081	0.000610352	
7.31049	-0.157471	0.000762939	
7.31171	-0.158081	0.000305176	
7.31262	-0.159912	0.000152588	
7.31537	-0.162354	0.000305176	
7.31628	-0.162964	0.000457764	
7.31689	-0.162659	0.000457764	
7.31659	-0.162964	0.000152588	
7.3172	-0.165405	0.000305176	
7.31689	-0.167236	0.000762939	
7.31689	-0.167847	0.0012207	
7.31659	-0.167236	0.000152588	
7.31659	-0.167847	0.000762939	
7.31598	-0.169983	0.000457764	
7.31628	-0.171814	0.000305176	
7.31598	-0.172424	0.000457764	
7.31659	-0.172729	0	
7.31659	-0.173035	-0.000610352	
7.31628	-0.172424	-0.000610352	
7.31628	-0.174255	0.000457764	
7.31659	-0.177002	0	
7.31659	-0.177612	0.000152588	
7.31659	-0.177917	0.000152588	
7.31659	-0.177002	0.000610352	
7.31689	-0.179749	0.000457764	
7.3172	-0.18219	0	
7.31689	-0.1828	0.000305176	
7.31659	-0.1828	0.000610352	
7.31689	-0.183105	0	
7.31689	-0.184326	0.000305176	
7.31689	-0.186157	-0.000305176	
7.31659	-0.187683	0.000152588	
7.31628	-0.187988	0	
7.31659	-0.187073	0.000457764	
7.31628	-0.187073	0.000457764	
7.31659	-0.189514	0.000305176	
7.31659	-0.191345	0.000762939	
7.31689	-0.192871	0.00106812	
7.31689	-0.192566	0.000915527	
7.3172	-0.192566	0.000610352	
7.31628	-0.194092	0.000915527	
7.31659	-0.196838	0.000762939	
7.31689	-0.197449	0.000762939	
7.31659	-0.196533	0	
7.31689	-0.197754	0.000305176	
7.31689	-0.197754	0.000305176	
7.31689	-0.19928	0.000457764	
7.31689	-0.201721	0.000152588	
7.3175	-0.201721	0.000152588	
7.31598	-0.202637	0.000457764	
7.3172	-0.202026	0.000762939	
7.31689	-0.202026	0.000457764	
7.31659	-0.204468	0.000457764	
7.31689	-0.206604	0.000915527	
7.31628	-0.207214	0.000152588	
7.31598	-0.20752	0.000457764	
7.31689	-0.20752	0	
7.31659	-0.209961	-0.000305176	
7.31659	-0.211792	-0.000152588	
7.31659	-0.212097	0.000457764	
7.31659	-0.211792	0	
7.3172	-0.212097	0.000152588	
7.31659	-0.211792	0.000305176	
7.31689	-0.213623	0.000457764	
7.31598	-0.216064	0.000457764	
7.3172	-0.216675	0.000457764	
7.31659	-0.21698	0.000305176	
7.31689	-0.21698	0.000457764	
7.31628	-0.216675	0.000152588	
7.31689	-0.218811	0.000457764	
7.31689	-0.221252	0	
7.31628	-0.221558	0.000305176	
7.31628	-0.222473	0.000152588	
7.31628	-0.221558	0.000305176	
7.31659	-0.223999	0.000457764	
7.31659	-0.226135	0.000152588	
7.31659	-0.226746	0.000610352	
7.31689	-0.226746	0.0012207	
7.31689	-0.227356	0.000457764	
7.31628	-0.22644	0.000610352	
7.31689	-0.228882	0.000305176	
7.31659	-0.230713	0.000610352	
7.31659	-0.231323	0.000610352	
7.31659	-0.231628	0.000152588	
7.31689	-0.231323	0.000152588	
7.31659	-0.231628	0.000152588	
7.31659	-0.233154	0.000305176	
7.31659	-0.235596	0.000305176	
7.31628	-0.236511	0.000457764	
7.31689	-0.236816	0.000610352	
7.32117	-0.236816	0.0012207	
7.32117	-0.236511	0.000152588	
7.32147	-0.238953	0.000762939	
7.32178	-0.240784	0.000610352	
7.32178	-0.241394	0.000305176	
7.32117	-0.241699	0.000457764	
7.32178	-0.241089	0	
7.32147	-0.243835	-0.000610352	
7.32178	-0.245667	0	
7.32147	-0.245667	0.000457764	
7.32147	-0.247192	0.000305176	
7.32178	-0.246277	0.000457764	
7.32147	-0.246277	0.000152588	
7.32117	-0.248108	0.000457764	
7.32086	-0.250854	0.000305176	
7.32178	-0.250854	0	
7.32178	-0.25116	0.000457764	
7.32117	-0.251465	0.000457764	
7.32025	-0.25116	0.000305176	
7.32147	-0.252991	0.000457764	
7.32117	-0.255127	-0.000457764	
7.32178	-0.256348	0	
7.32239	-0.256042	0.000610352	
7.32147	-0.256653	0	
7.32178	-0.256042	0.000457764	
7.32178	-0.258484	0	
7.32147	-0.260315	0.000610352	
7.32178	-0.26062	0.00137329	
7.32056	-0.260925	0.000457764	
7.32117	-0.26062	0.000762939	
7.32178	-0.263367	0.00106812	
7.32117	-0.265503	0.000457764	
7.32178	-0.266113	0.000610352	
7.32117	-0.266418	0.000305176	
7.32208	-0.265808	0.000305176	
7.32147	-0.265198	0.000305176	
7.32178	-0.267639	0.000305176	
7.32178	-0.270386	0.000152588	
7.32178	-0.270386	0.000152588	
7.32178	-0.270691	0.000457764	
7.32117	-0.271301	0.000915527	
7.32178	-0.270691	0.000457764	
7.32178	-0.273438	0.000305176	
7.32147	-0.274963	0.000610352	
7.32208	-0.276184	0	
7.32178	-0.275574	0.000610352	
7.32178	-0.275879	0	
7.32117	-0.275574	-0.000305176	
7.32147	-0.278015	-0.000152588	
7.32208	-0.280151	0.000305176	
7.32147	-0.280457	0.000305176	
7.32178	-0.281067	-0.000152588	
7.32086	-0.281372	-0.000152588	
7.32208	-0.281982	0.000305176	
7.32117	-0.284729	0.000305176	
7.32178	-0.285645	0.000610352	
7.32117	-0.285339	0.000610352	
7.32178	-0.285339	0.000305176	
7.32178	-0.285645	0	
7.32208	-0.287781	0.000610352	
7.32178	-0.289612	-0.000305176	
7.32178	-0.289917	0.000457764	
7.32147	-0.290527	0.000305176	
7.32117	-0.290527	0.000152588	
7.32178	-0.289612	0.000305176	
7.32086	-0.292053	0	
7.32086	-0.295105	0.000610352	
7.32208	-0.2948	0.00152588	
7.32178	-0.295715	0.000610352	
7.32147	-0.2948	0.000610352	
7.32178	-0.295105	0.000610352	
7.32117	-0.297546	0.000610352	
7.32147	-0.299377	0.000915527	
7.32178	-0.299988	0.000152588	
7.32147	-0.300598	0.000152588	
7.32147	-0.300903	0.000457764	
7.32147	-0.300903	0.000305176	
7.32208	-0.302429	0.000152588	
7.32178	-0.304871	0.000305176	
7.32178	-0.304871	0.000915527	
7.32208	-0.305481	0.0012207	
7.32147	-0.305481	0.000915527	
7.32117	-0.305176	0.000305176	
7.32178	-0.307007	0.000457764	
7.32178	-0.309448	0.000457764	
7.32147	-0.310364	0.000457764	
7.32147	-0.309753	0	
7.32086	-0.310669	-0.000457764	
7.32147	-0.310364	-0.000305176	
7.32117	-0.312195	0.000457764	
7.32208	-0.314026	0	
7.32178	-0.315552	0.000305176	
7.32147	-0.314941	0	
7.32178	-0.314331	0.000457764	
7.32147	-0.316467	0.000305176	
7.32117	-0.319824	0.000305176	
7.32117	-0.319824	0.000305176	
7.32147	-0.318909	0.000305176	
7.32178	-0.319824	0	
7.32208	-0.319824	0	
7.32086	-0.321655	-0.000457764	
7.32239	-0.324097	0.000305176	
7.32147	-0.324402	-0.000152588	
7.32178	-0.325012	0.000305176	
7.32086	-0.324402	0.000305176	
7.32147	-0.324707	0	
7.32117	-0.326233	0.000457764	
7.32147	-0.328979	0.00137329	
7.32178	-0.329895	0.00106812	
7.32208	-0.329285	0.000305176	
7.32178	-0.32959	0.000610352	
7.32147	-0.32959	0.000305176	
7.32147	-0.330811	0.000610352	
7.32056	-0.334473	0.000305176	
7.31781	-0.334473	0.000152588	
7.31689	-0.334473	0.000610352	
7.31659	-0.334167	0.000152588	
7.31598	-0.334473	0.000457764	
7.31689	-0.336609	0	
7.31689	-0.338745	0.000457764	
7.31659	-0.339355	0.000915527	
7.31659	-0.33905	0.000610352	
7.31689	-0.339355	0.000457764	
7.31628	-0.33905	0.000762939	
7.31628	-0.341492	0.000457764	
7.31628	-0.343323	0.000762939	
7.31659	-0.343933	0	
7.3172	-0.344238	-0.000610352	
7.31689	-0.344238	-0.000305176	
7.31628	-0.343628	0.000610352	
7.31659	-0.346069	-0.000152588	
7.3172	-0.349121	0.000457764	
7.31659	-0.349426	0.000152588	
7.31689	-0.349731	0.000305176	
7.31659	-0.350037	0.000457764	
7.31659	-0.349121	0.000610352	
7.31628	-0.351257	0.000762939	
7.31598	-0.354004	0.000305176	
7.31659	-0.353699	0.000305176	
7.31659	-0.354004	0.000610352	
7.31628	-0.354309	-0.000152588	
7.31659	-0.354614	0.000152588	
7.31598	-0.355835	0.000152588	
7.31689	-0.358276	0.000152588	
7.31659	-0.358887	0.000152588	
7.31598	-0.358276	0.000305176	
7.31628	-0.358887	0.000762939	
7.31659	-0.358582	0.0012207	
7.31659	-0.361328	0.000915527	
7.31659	-0.362549	0.000762939	
7.31659	-0.364075	0.000762939	
7.31598	-0.364075	0.000610352	
7.31659	-0.36377	0.000457764	
7.31689	-0.36377	0.000305176	
7.31659	-0.366516	0	
7.31689	-0.368042	0.000152588	
7.31659	-0.368652	0.000305176	
7.31689	-0.368958	0.000305176	
7.31628	-0.368652	0.000305176	
7.31689	-0.368347	0.000915527	
7.31659	-0.368958	0.000915527	
7.31628	-0.371094	0.000305176	
7.31659	-0.372925	0.000610352	
7.31598	-0.373535	0.000610352	
7.31689	-0.373535	0.000305176	
7.31659	-0.37384	0.000762939	
7.31628	-0.37384	-0.000152588	
7.31598	-0.375671	-0.000305176	
7.31659	-0.378418	-0.000457764	
7.31628	-0.378113	0.000457764	
7.31598	-0.378418	0	
7.3172	-0.379028	0.000457764	
7.3175	-0.379639	-0.000152588	
7.31689	-0.380249	0.000457764	
7.31598	-0.38269	0.000305176	
7.31659	-0.383606	0.000610352	
7.31628	-0.383606	0.000305176	
7.31689	-0.382996	0.000457764	
7.3172	-0.383606	0.000152588	
7.31628	-0.386658	0.000152588	
7.31628	-0.387573	-0.000305176	
7.31689	-0.388184	-0.000152588	
7.31628	-0.388489	0.000152588	
7.31659	-0.388489	0.000305176	
7.31659	-0.388184	0.000305176	
7.31659	-0.390015	-0.000152588	
7.31598	-0.392456	0.000915527	
7.31689	-0.393066	0.00137329	
7.31689	-0.393066	0.000457764	
7.31689	-0.393066	0.000457764	
7.31689	-0.393066	0.000305176	
7.31659	-0.394897	0.000152588	
7.31628	-0.397949	0.000305176	
7.31659	-0.398865	0.000152588	
7.31628	-0.397949	0.000152588	
7.3172	-0.397949	0.000152588	
7.31659	-0.39856	0.000152588	
7.31689	-0.397949	0.000152588	
7.31659	-0.401001	0.000457764	
7.31659	-0.402832	0.0012207	
7.31659	-0.402832	0.0012207	
7.31567	-0.403137	0.000762939	
7.31293	-0.402222	0.000457764	
7.31171	-0.403442	0.000305176	
7.3114	-0.404968	0	
7.3114	-0.407715	0.000610352	
7.3111	-0.40802	0	
7.31201	-0.40802	-0.000305176	
7.3114	-0.408325	-0.000610352	
7.31079	-0.407104	0.000457764	
7.31171	-0.410156	0	
7.31171	-0.412292	0.000305176	
7.31171	-0.412292	-0.000152588	
7.31201	-0.413208	0.000610352	
7.31171	-0.413208	0.000305176	
7.31171	-0.412903	0.000610352	
7.31201	-0.415039	0.000152588	
7.3114	-0.417175	0.000305176	
7.31171	-0.418091	0.000305176	
7.31171	-0.417786	0.000762939	
7.31171	-0.418091	-0.000305176	
7.31201	-0.417786	-0.000152588	
7.31171	-0.41748	0.000305176	
7.31201	-0.420837	-0.000305176	
7.3114	-0.421753	0.000152588	
7.31171	-0.422363	0.000610352	
7.3114	-0.423279	0.000305176	
7.31171	-0.422668	0.00106812	
7.31201	-0.422668	0.000762939	
7.3114	-0.423889	0.000762939	
7.31171	-0.426331	0.000457764	
7.3111	-0.427246	0.000457764	
7.31232	-0.427856	0.000610352	
7.31171	-0.427246	0.000152588	
7.31201	-0.428162	0.000152588	
7.3114	-0.428162	0.000305176	
7.3114	-0.429688	0.000305176	
7.3114	-0.432739	0.000152588	
7.31232	-0.432739	0.000305176	
7.31171	-0.432739	0.000915527	
7.31201	-0.432739	0.000762939	
7.3114	-0.432739	0.000762939	
7.31171	-0.433655	0.000457764	
7.31201	-0.434265	0.000915527	
7.3114	-0.437317	0.000305176	
7.31171	-0.437927	0.000762939	
7.31079	-0.437317	0	
7.31232	-0.437012	-0.000610352	
7.3114	-0.437622	-0.000305176	
7.31201	-0.439453	0.000305176	
7.3111	-0.4422	0.000152588	
7.30774	-0.441895	-0.000152588	
7.30713	-0.44281	0	
7.30682	-0.4422	0.000457764	
7.30652	-0.442505	0.000305176	
7.30682	-0.4422	0.000305176	
7.30682	-0.444946	0.000305176	
7.30652	-0.447083	0.000762939	
7.30713	-0.447998	0	
7.30682	-0.446777	0	
7.30743	-0.447693	-0.000762939	
7.30682	-0.447693	0.000152588	
7.30621	-0.447388	0	
7.30713	-0.449524	-0.000152588	
7.30713	-0.45166	0.000305176	
7.30713	-0.451965	0.000305176	
7.30713	-0.452271	0.000610352	
7.30652	-0.451965	0.00152588	
7.30621	-0.45166	0.000915527	
7.30621	-0.452271	0.000762939	
7.30652	-0.454712	0.000305176	
7.30713	-0.456543	0.000610352	
7.30713	-0.457153	0.000762939	
7.3056	-0.456848	-0.000152588	
7.30713	-0.457458	0.000457764	
7.30682	-0.457458	0.000152588	
7.30682	-0.457153	0.000610352	
7.30682	-0.45929	0.000152588	
7.30682	-0.461731	0.000152588	
7.30682	-0.462036	0.000762939	
7.30652	-0.461731	0.00106812	
7.30682	-0.461731	0.000305176	
7.30682	-0.462036	0.000305176	
7.30682	-0.461426	0.000610352	
7.30713	-0.462036	0.000457764	
7.30682	-0.463867	0.000610352	
7.30591	-0.466614	0.000152588	
7.30286	-0.467224	-0.000762939	
7.30194	-0.467224	-0.000762939	
7.30164	-0.466919	0.000610352	
7.30103	-0.466919	0.000457764	
7.30164	-0.466309	0.000305176	
7.30164	-0.466614	0	
7.30164	-0.468445	0.000152588	
7.30164	-0.471191	0.000610352	
7.30194	-0.471191	0.000610352	
7.30164	-0.471497	0.000152588	
7.30194	-0.471497	0.000610352	
7.30164	-0.470886	0.000152588	
7.30164	-0.472107	0.000457764	
7.30194	-0.471497	-0.000305176	
7.30194	-0.474243	0	
7.30103	-0.475769	0.000152588	
7.30133	-0.476685	0.000305176	
7.30164	-0.476379	0	
7.30194	-0.476379	0.000305176	
7.30164	-0.476379	0.000610352	
7.30133	-0.476379	0.00106812	
7.30164	-0.476379	0.000762939	
7.30133	-0.478516	0.000305176	
7.30194	-0.480957	0.000915527	
7.30194	-0.480347	0.000762939	
7.30164	-0.481567	0.000457764	
7.30164	-0.480957	-0.000152588	
7.30164	-0.482178	0.000152588	
7.30103	-0.481567	0.000305176	
7.29797	-0.480957	0.000305176	
7.29736	-0.481873	0.000305176	
7.29675	-0.484009	-0.000152588	
7.29645	-0.485535	0.000610352	
7.29706	-0.48645	0.00137329	
7.29736	-0.486755	0.000305176	
7.29675	-0.48645	0.000915527	
7.29706	-0.48584	0.000610352	
7.29706	-0.486145	0.000152588	
7.29736	-0.486755	0.000762939	
7.29675	-0.486145	0	
7.29675	-0.48584	-0.000305176	
7.29675	-0.488281	-0.000457764	
7.29645	-0.490417	0.000152588	
7.29706	-0.491943	0	
7.29675	-0.490723	0	
7.29736	-0.492249	0.000152588	
7.29706	-0.491028	0.000305176	
7.29767	-0.491943	0.000305176	
7.29706	-0.491028	0.000762939	
7.29675	-0.491333	0	
7.29675	-0.491638	0.000457764	
7.29675	-0.493164	0.000457764	
7.29767	-0.495605	0	
7.29767	-0.496521	-0.000305176	
7.29614	-0.496521	0	
7.2937	-0.496216	0.000305176	
7.29218	-0.496216	0.000152588	
7.29218	-0.495605	0	
7.29187	-0.496216	0.000152588	
7.29187	-0.495911	0.000610352	
7.29187	-0.495911	0.0012207	
7.29187	-0.496216	0.000610352	
7.29187	-0.495911	0.000762939	
7.29218	-0.495911	0.000762939	
7.29156	-0.495911	0.000457764	
7.29126	-0.494995	0.000610352	
7.29279	-0.496216	0.000152588	
7.29187	-0.496216	0.000152588	
7.29218	-0.498962	0.000152588	
7.29156	-0.500793	0.000457764	
7.29187	-0.500793	-0.000152588	
7.29156	-0.501709	0.000152588	
7.29156	-0.501404	0.000915527	
7.29126	-0.500793	0.00137329	
7.29248	-0.500793	0.000762939	
7.29187	-0.500793	0.000457764	
7.29248	-0.501099	0.000457764	
7.29095	-0.501404	0.000457764	
7.2876	-0.501404	0.000610352	
7.28729	-0.500793	0.000305176	
7.28699	-0.501404	-0.000610352	
7.28638	-0.501099	-0.000152588	
7.28607	-0.501404	0.000305176	
7.28638	-0.500793	0.000305176	
7.28729	-0.500488	0.000457764	
7.28638	-0.500793	0.000305176	
7.28699	-0.501099	0.000762939	
7.28729	-0.501099	0.000305176	
7.28699	-0.501404	0.000457764	
7.28668	-0.501404	0.000457764	
7.28699	-0.501099	0.000457764	
7.28668	-0.501404	0.000457764	
7.28668	-0.500488	0.000457764	
7.28668	-0.499268	-0.000305176	
7.2876	-0.497437	0.000152588	
7.28699	-0.496216	-0.000152588	
7.28699	-0.496521	0.000152588	
7.28729	-0.495911	0.000305176	
7.28577	-0.496216	0	
7.28302	-0.496216	0.000457764	
7.28241	-0.496216	0.00106812	
7.2821	-0.496521	0.000762939	
7.28241	-0.495911	0.000457764	
7.2818	-0.496216	0.000457764	
7.2821	-0.496521	0.000457764	
7.2818	-0.495911	0.000762939	
7.2821	-0.49408	0.000152588	
7.2818	-0.491638	0.000305176	
7.2821	-0.491028	-0.000152588	
7.2821	-0.491028	0.000305176	
7.2821	-0.491028	0.000152588	
7.28241	-0.490723	0.000152588	
7.28241	-0.491333	0.000762939	
7.28119	-0.489502	0.00137329	
7.28241	-0.487061	0.000762939	
7.28241	-0.48584	0.000610352	
7.2818	-0.48584	0.000610352	
7.28119	-0.48584	0.000457764	
7.27844	-0.48584	0.000457764	
7.27783	-0.484619	0.000152588	
7.27692	-0.481873	-0.000610352	
7.27753	-0.481262	-0.000305176	
7.27661	-0.481567	0.000457764	
7.27661	-0.479736	0.000152588	
7.27753	-0.476685	0.000305176	
7.27722	-0.476379	0	
7.27661	-0.476379	0.000610352	
7.27753	-0.474243	0.000457764	
7.27722	-0.471802	0.000305176	
7.27661	-0.471497	0.000457764	
7.27722	-0.471191	0.000610352	
7.27692	-0.469971	0.000305176	
7.27722	-0.467529	-0.000152588	
7.27692	-0.466614	-0.000762939	
7.27753	-0.464783	0	
7.27692	-0.462341	0.000152588	
7.27631	-0.461426	0.000152588	
7.27325	-0.459595	0.000305176	
7.27234	-0.457458	0.000152588	
7.27203	-0.457153	0.000610352	
7.27203	-0.455322	0.00152588	
7.27264	-0.453491	0.00106812	
7.27203	-0.451965	0.000762939	
7.27203	-0.449829	0.000457764	
7.27173	-0.447693	0.000152588	
7.27203	-0.444336	0.000762939	
7.27264	-0.44281	0.000152588	
7.27173	-0.443115	0.000152588	
7.27203	-0.440369	0.000152588	
7.27173	-0.437927	0.000457764	
7.27234	-0.436401	0.000305176	
7.27264	-0.433044	0.000305176	
7.27264	-0.430603	0.000457764	
7.27112	-0.428162	0.00106812	
7.26868	-0.42511	0.000610352	
7.26776	-0.423279	0.000610352	
7.26685	-0.420837	0.000762939	
7.26715	-0.418091	0.000305176	
7.26776	-0.415344	0.000915527	
7.26715	-0.413818	0.000610352	
7.26776	-0.411377	-0.000305176	
7.26715	-0.408325	-0.000457764	
7.26746	-0.405884	0.000152588	
7.26685	-0.403748	0	
7.26776	-0.401001	0.000305176	
7.26685	-0.396118	0.000152588	
7.26685	-0.393982	0.000152588	
7.26715	-0.390625	0.000457764	
7.26715	-0.389099	0.000915527	
7.26654	-0.386658	0	
7.2641	-0.38269	0.000152588	
7.26196	-0.379639	0	
7.26227	-0.377502	0	
7.26227	-0.372314	-0.000305176	
7.26196	-0.368958	-0.000152588	
7.26227	-0.366821	0.000152588	
7.26227	-0.362854	0.000305176	
7.26257	-0.357361	0	
7.26257	-0.354919	0.000152588	
7.26227	-0.351868	0.000305176	
7.26196	-0.348206	0.00183105	
7.26257	-0.342712	0.000762939	
7.26227	-0.339355	0.00106812	
7.26227	-0.337219	0.000305176	
7.26257	-0.332947	0.000152588	
7.26105	-0.327759	0.000457764	
7.2583	-0.325317	0.000152588	
7.25708	-0.32196	0.000457764	
7.25677	-0.317078	0.000610352	
7.25739	-0.313416	0	
7.25769	-0.308533	0.000457764	
7.25708	-0.30426	0.000152588	
7.25739	-0.301514	0.000915527	
7.25739	-0.297852	0.00106812	
7.25708	-0.293579	0.000762939	
7.25708	-0.289001	0.000457764	
7.25739	-0.284119	0.000457764	
7.25677	-0.279236	0.000457764	
7.25708	-0.274353	0.000762939	
7.25739	-0.26825	-0.000152588	
7.25647	-0.264587	-0.000457764	
7.25342	-0.258789	-0.000305176	
7.25189	-0.253601	0.000610352	
7.25281	-0.249329	0.000305176	
7.25189	-0.244446	0.000305176	
7.2522	-0.239258	0.000152588	
7.2525	-0.236816	0.000305176	
7.25281	-0.23407	0.000305176	
7.25281	-0.230408	0.000762939	
7.25159	-0.223999	0.000305176	
7.2525	-0.21637	0	
7.2522	-0.210571	0.000152588	
7.2525	-0.205383	0.000457764	
7.25189	-0.200195	0	
7.2522	-0.195923	0.000457764	
7.24884	-0.19043	-0.000152588	
7.24731	-0.186462	0	
7.24701	-0.18158	0	
7.24731	-0.176392	0	
7.24762	-0.170898	0.000610352	
7.24731	-0.16571	0.0012207	
7.24792	-0.161743	0.000762939	
7.24731	-0.15625	0.000305176	
7.24762	-0.151978	0.000915527	
7.24823	-0.144958	0.000457764	
7.24762	-0.137329	0.000305176	
7.24731	-0.132141	0.000152588	
7.24792	-0.127258	0	
7.2467	-0.122375	0.000305176	
7.24335	-0.117798	0	
7.24304	-0.110779	0	
7.24243	-0.102844	0.000305176	
7.24274	-0.0973511	0.000762939	
7.24304	-0.0927734	0.0012207	
7.24243	-0.0878906	0.000915527	
7.24243	-0.0823975	0.000457764	
7.24243	-0.0759888	0.000457764	
7.24243	-0.0692749	0.000610352	
7.24304	-0.0628662	0.000610352	
7.24274	-0.0585938	0	
7.24274	-0.0540161	-0.000762939	
7.24243	-0.0469971	-0.000457764	
7.24121	-0.0390625	0.000457764	
7.23877	-0.0338745	0	
7.23785	-0.0286865	0.000305176	
7.23755	-0.0216675	0	
7.23816	-0.0146484	0.000762939	
7.23755	-0.00946045	0.000457764	
7.23816	-0.00518799	0.000305176	
7.23755	0.00183105	0.000152588	
7.23785	0.00976563	0.000457764	
7.23724	0.0152588	0	
7.23694	0.0192261	0.000457764	
7.23785	0.0271606	-0.000305176	
7.23755	0.0338745	0	
7.23724	0.0390625	0.000305176	
7.23389	0.0457764	0.000152588	
7.23267	0.0537109	0.000457764	
7.23236	0.0592041	0.000305176	
7.23267	0.0637817	0.000457764	
7.23297	0.0714111	0.00106812	
7.23267	0.078125	0.0012207	
7.23328	0.0836182	0.000305176	
7.23328	0.0900269	0.000610352	
7.23328	0.0976563	0.000305176	
7.23236	0.102844	0.000610352	
7.23267	0.109558	-0.000152588	
7.23206	0.116882	0.000305176	
7.229	0.122986	0.000305176	
7.22809	0.128784	0	
7.22809	0.136719	0.000305176	
7.22809	0.141602	-0.000152588	
7.22717	0.149231	0.000610352	
7.22748	0.155945	0.00106812	
7.22778	0.161438	0.000762939	
7.22778	0.166321	0.000305176	
7.22748	0.173645	0.000457764	
7.22809	0.180664	0.000762939	
7.22839	0.186157	0.000610352	
7.22717	0.192566	0.000152588	
7.22687	0.19989	-0.000305176	
7.22382	0.205383	-0.000762939	
7.22351	0.212097	0.000305176	
7.2229	0.220032	0.000305176	
7.2226	0.224915	0.000457764	
7.22321	0.232239	0	
7.22351	0.238647	0.000457764	
7.2229	0.245361	0.000610352	
7.2229	0.25238	0.000457764	
7.22321	0.258789	0	
7.22321	0.264893	0.000305176	
7.22321	0.270996	0.000305176	
7.22168	0.278625	0.000610352	
7.21893	0.284119	-0.000305176	
7.21893	0.290833	0	
7.21863	0.298157	0.000457764	
7.21802	0.303955	-0.000152588	
7.21741	0.308838	0.000610352	
7.21802	0.315247	0.000152588	
7.21771	0.32196	0.000305176	
7.21771	0.328064	0.000762939	
7.21802	0.335999	0.000762939	
7.21802	0.342102	0.000762939	
7.21771	0.348206	0.000457764	
7.2168	0.354919	0.000457764	
7.21436	0.361938	0.000610352	
7.21344	0.367126	0.000305176	
7.21283	0.372925	0.000152588	
7.21283	0.379333	-0.000152588	
7.21283	0.386658	0.000305176	
7.21313	0.392151	-0.000152588	
7.21344	0.396118	0	
7.21313	0.403137	0.000457764	
7.21313	0.411682	0.000915527	
7.21283	0.41687	0.000305176	
7.21191	0.421448	0.000457764	
7.20917	0.429077	0.000457764	
7.20856	0.436096	0.000762939	
7.20856	0.441284	0.000610352	
7.20764	0.445557	0.000457764	
7.20795	0.452881	-0.000762939	
7.20825	0.4599	-0.000457764	
7.20795	0.465393	0.000610352	
7.20886	0.470276	0.000152588	
7.20856	0.476379	0.000152588	
7.20795	0.484009	0.000305176	
7.20734	0.489807	0.000610352	
7.20734	0.49469	0.000457764	
7.20367	0.499573	0.000457764	
7.20306	0.504456	-0.000152588	
7.20398	0.511169	0.000762939	
7.20215	0.519409	0.000457764	
7.20245	0.524292	0.000305176	
7.20276	0.52948	-0.000457764	
7.20306	0.534668	0	
7.20276	0.539246	0.000152588	
7.20337	0.546265	0	
7.20337	0.553589	0.000305176	
7.20245	0.558167	0	
7.19971	0.563965	0.000152588	
7.19757	0.568542	0.00106812	
7.19849	0.573425	0.000915527	
7.19849	0.578613	0.000762939	
7.19879	0.583801	0.000457764	
7.19788	0.589905	0.000457764	
7.19757	0.597229	0.0012207	
7.19818	0.602722	0.000305176	
7.19757	0.60791	0.000152588	
7.19849	0.612793	0.000152588	
7.19696	0.617371	0.000152588	
7.19452	0.621948	0	
7.1933	0.626831	0.000305176	
7.19238	0.631409	0.000762939	
7.19299	0.636597	0.000762939	
7.1933	0.641174	0.000610352	
7.19299	0.647583	0.000762939	
7.19299	0.65155	0.000152588	
7.1933	0.657043	0.000305176	
7.19421	0.661621	0.000610352	
7.19299	0.666199	0.000305176	
7.19116	0.671387	-0.000762939	
7.18994	0.675964	-0.000457764	
7.18872	0.681152	0	
7.18872	0.686646	0.000762939	
7.18842	0.690918	0.000152588	
7.18842	0.695496	0.000152588	
7.1875	0.700989	0.000762939	
7.18811	0.705872	0.000457764	
7.18811	0.710754	0.000610352	
7.18842	0.715332	-0.000152588	
7.1875	0.718079	0.000457764	
7.18445	0.72052	0.000457764	
7.18353	0.725403	-0.000152588	
7.18353	0.72998	-0.000152588	
7.18262	0.735168	0.000152588	
7.18292	0.739746	0.000457764	
7.18323	0.745239	0.000305176	
7.18353	0.749512	0.000305176	
7.18292	0.752869	0.000152588	
7.18414	0.755615	0.000457764	
7.18353	0.759888	0.0012207	
7.18201	0.763855	0.000915527	
7.17957	0.769958	0.000610352	
7.17834	0.7724	0.000457764	
7.17834	0.775757	0.000457764	
7.17865	0.778503	0.000762939	
7.17865	0.783386	0.000305176	
7.17834	0.78949	0.000305176	
7.17896	0.791931	0.000152588	
7.17743	0.794373	0.000152588	
7.17834	0.79834	0.000305176	
7.17773	0.803528	0.000305176	
7.17438	0.80658	0.000457764	
7.17346	0.809021	0.00106812	
7.17346	0.813904	0.000610352	
7.17407	0.816345	0.000457764	
7.17346	0.819702	0.000610352	
7.17377	0.823669	0.000457764	
7.17407	0.826416	0.000610352	
7.17346	0.828857	0	
7.17346	0.83313	-0.000457764	
7.17377	0.836182	-0.000610352	
7.17316	0.839233	0.000762939	
7.17041	0.842896	0.000152588	
7.16919	0.845642	0.000305176	
7.16888	0.848083	0	
7.16949	0.85144	0.000610352	
7.16797	0.853577	0.000610352	
7.16858	0.858459	0.000305176	
7.16827	0.860291	0.000152588	
7.16888	0.863647	0.000457764	
7.16827	0.865479	0.000610352	
7.16675	0.86792	0.000457764	
7.16522	0.870361	-0.000152588	
7.1637	0.872803	0	
7.16339	0.875854	0.000457764	
7.16339	0.878296	0.000305176	
7.164	0.880432	0.000457764	
7.164	0.883789	0.000457764	
7.1637	0.88562	0.000457764	
7.1637	0.887451	0.00106812	
7.16339	0.890198	0.0012207	
7.16278	0.892639	0.000762939	
7.15973	0.895386	0.000457764	
7.15851	0.895996	0.000915527	
7.1582	0.897217	0.000457764	
7.15851	0.900269	0.000152588	
7.15851	0.9021	0.000457764	
7.1582	0.905457	0	
7.15881	0.906982	0.000305176	
7.15881	0.910034	0.000305176	
7.15912	0.910645	0.000152588	
7.15759	0.912781	0.000305176	
7.15485	0.915222	0.0012207	
7.15363	0.914917	0.000457764	
7.15393	0.917053	0.000457764	
7.15454	0.919495	0.000762939	
7.15424	0.920105	0.000762939	
7.15393	0.922241	0.000610352	
7.15363	0.924377	0.000457764	
7.15332	0.925293	-0.000305176	
7.15332	0.925293	-0.000305176	
7.1524	0.927734	0.000152588	
7.14966	0.92865	0.000305176	
7.14905	0.930481	0	
7.14874	0.929871	0.000152588	
7.14844	0.931702	0.000305176	
7.14905	0.934753	0.000610352	
7.14935	0.935364	0.000457764	
7.14905	0.935059	0.000305176	
7.14905	0.935059	0.000457764	
7.14691	0.936584	0.000457764	
7.14539	0.938721	0.000457764	
7.14417	0.939331	-0.000305176	
7.14417	0.938721	0.000305176	
7.14417	0.939331	0.000152588	
7.14355	0.939331	0.000457764	
7.14386	0.941467	0	
7.14386	0.943298	0.000152588	
7.14386	0.944824	0.000762939	
7.14355	0.944519	0.0012207	
7.14355	0.944519	0.0012207	
7.1402	0.944214	0.00106812	
7.13898	0.943909	0.000152588	
7.13867	0.944519	0.000457764	
7.13867	0.944519	0.000457764	
7.13898	0.945129	0.000305176	
7.13867	0.943909	0	
7.13867	0.944824	0.000305176	
7.13867	0.944519	0.000915527	
7.13867	0.946045	0.000152588	
7.13776	0.949097	0	
7.13501	0.949707	0.000610352	
7.13409	0.948792	0.000762939	
7.13379	0.949402	0.000152588	
7.1344	0.947266	0.000457764	
7.13379	0.945435	0.000305176	
7.13409	0.944824	0.000457764	
7.1344	0.945129	0.000610352	
7.1344	0.944519	0.000762939	
7.13318	0.944214	-0.000762939	
7.13013	0.944519	-0.000610352	
7.12891	0.943604	0.000305176	
7.1286	0.944214	0.000457764	
7.12891	0.944824	0.000152588	
7.1286	0.943909	0.000152588	
7.12952	0.944214	0.000457764	
7.12891	0.944519	0.000610352	
7.12921	0.942383	0.000457764	
7.12891	0.939941	0.000610352	
7.12799	0.939331	0.000457764	
7.12585	0.939941	0.000305176	
7.12402	0.939636	0.000305176	
7.12402	0.939331	0.000152588	
7.12402	0.939331	0.000152588	
7.12402	0.93811	0.000305176	
7.12402	0.935669	0.000457764	
7.12433	0.935059	0.000305176	
7.12402	0.934448	0.000305176	
7.12341	0.934753	0.000305176	
7.11975	0.933533	0.00137329	
7.11975	0.930481	0.00106812	
7.11914	0.929871	0.00106812	
7.11914	0.930176	0.000457764	
7.11884	0.92865	0.000457764	
7.11945	0.925293	0.000457764	
7.11945	0.925598	0.000305176	
7.11914	0.924683	0.000305176	
7.11823	0.922852	0.000305176	
7.11487	0.920715	0.000915527	
7.11487	0.920105	0.000305176	
7.11395	0.918274	0.000152588	
7.11365	0.916138	0.000762939	
7.11456	0.915222	0.00106812	
7.11456	0.913696	0.000457764	
7.11365	0.911255	0.000610352	
7.11395	0.910339	0.000915527	
7.11426	0.908508	0.000762939	
7.11365	0.905762	0.000610352	
7.1109	0.905151	0.000762939	
7.10938	0.903931	-0.000305176	
7.10999	0.901794	-0.000762939	
7.10907	0.900574	0	
7.10938	0.898132	0.000152588	
7.10968	0.896606	-0.000305176	
7.10938	0.89386	0	
7.10938	0.891418	0.000610352	
7.10815	0.890808	0.000305176	
7.10541	0.888672	0.000457764	
7.10419	0.886536	0.000457764	
7.10449	0.883484	0.000305176	
7.10449	0.881958	0.000915527	
7.10449	0.878296	0.000152588	
7.10388	0.87616	0	
7.1051	0.87616	0	
7.10358	0.873108	0	
7.10358	0.871582	0.000152588	
7.10114	0.869141	-0.000152588	
7.09991	0.867004	-0.000152588	
7.09991	0.864258	0.000305176	
7.09991	0.861511	0.000762939	
7.09991	0.858765	0.000915527	
7.09961	0.857239	0.000610352	
7.09991	0.854797	0.000610352	
7.09869	0.852661	0.000457764	
7.09869	0.849304	0.000457764	
7.09595	0.847168	0.000305176	
7.09503	0.844727	0.000152588	
7.09503	0.84259	0.000305176	
7.09412	0.839539	0.000610352	
7.09381	0.835266	0.000152588	
7.09473	0.832825	0.000152588	
7.09412	0.830078	0.000762939	
7.09412	0.827942	0.000457764	
7.09381	0.82489	0.000457764	
7.09137	0.822754	0.000457764	
7.09015	0.819702	0.000915527	
7.09015	0.81604	0.000152588	
7.08984	0.812988	0.000610352	
7.09015	0.810242	0.000457764	
7.08954	0.808105	-0.000305176	
7.09015	0.805664	-0.000610352	
7.08984	0.801392	0.000305176	
7.08832	0.798035	0.000152588	
7.08649	0.794983	0	
7.08435	0.793762	0.000152588	
7.08405	0.7901	0.000305176	
7.08496	0.785828	0.000152588	
7.08466	0.783386	0.000457764	
7.08435	0.78186	0.000457764	
7.08527	0.776367	0.000762939	
7.08527	0.773926	0.000457764	
7.08344	0.771179	0.000152588	
7.08038	0.768738	0.000152588	
7.07977	0.765991	0.000305176	
7.07947	0.761719	0.000457764	
7.07947	0.758972	0	
7.07977	0.756836	0.000305176	
7.08008	0.751953	0	
7.08008	0.749512	0.000305176	
7.08008	0.746765	0.000915527	
7.07855	0.741882	0.0012207	
7.07611	0.737915	0.000762939	
7.0752	0.734558	0.000915527	
7.0755	0.731812	0.000457764	
7.07458	0.727539	0.000457764	
7.0752	0.724182	0.000152588	
7.07458	0.721741	0.000457764	
7.07428	0.717163	0.000152588	
7.07458	0.715027	0.000305176	
7.07428	0.712585	0.000305176	
7.07214	0.708008	0	
7.0697	0.703125	0.000762939	
7.07031	0.700073	0.000457764	
7.07001	0.697327	0.000610352	
7.0694	0.693359	0.000305176	
7.07031	0.690002	0.000457764	
7.0697	0.687256	0.000457764	
7.06879	0.683594	0.000915527	
7.06635	0.679321	0.000610352	
7.06482	0.675354	-0.000305176	
7.06543	0.672607	-0.000610352	
7.06451	0.66803	0.000457764	
7.06512	0.663452	0	
7.06573	0.660706	0.000610352	
7.06512	0.657349	-0.000152588	
7.06512	0.653687	0.000305176	
7.06451	0.649414	0.000610352	
7.06085	0.646057	0.000915527	
7.06055	0.643005	0.000457764	
7.05994	0.639038	0.000457764	
7.05963	0.634155	0.000457764	
7.06024	0.630798	0.000152588	
7.05963	0.628052	0	
7.06055	0.62439	-0.000152588	
7.05963	0.619812	0.000457764	
7.05963	0.614929	0	
7.05658	0.611572	0	
7.05475	0.609131	0	
7.05444	0.604248	0.000152588	
7.05475	0.599976	0.000915527	
7.05505	0.596924	0.0012207	
7.05505	0.594177	0.00106812	
