model_ppg1.acq
0.5 msec/sample
3 channels
RSP, X, RSPEC-R
Volts
PPG, X, PPGED-R
Volts
ECG, Y, RSPEC-R
mV
CH1	CH2	CH13	
248875	248875	248875	
6.88782	0.592651	0.000610352	
6.8869	0.591125	0.000457764	
6.88812	0.588074	0.000457764	
6.88751	0.586243	0.000305176	
6.88751	0.582581	0	
6.88721	0.578308	0.000305176	
6.8869	0.576477	0.000457764	
6.88751	0.57312	0.000305176	
6.88782	0.571289	0.000762939	
6.88751	0.568542	0.000610352	
6.88721	0.567017	0.00106812	
6.8869	0.563354	0.000610352	
6.88782	0.561829	0.000152588	
6.88721	0.558472	0.00106812	
6.88751	0.554199	0.000457764	
6.88751	0.552063	0.000457764	
6.88721	0.549011	0.000152588	
6.88751	0.546875	-0.000457764	
6.88721	0.544128	0.000305176	
6.88782	0.541382	0.000457764	
6.88721	0.538635	0	
6.88782	0.533752	0.000305176	
6.88721	0.532532	0	
6.88751	0.529175	0.0012207	
6.8869	0.527649	0.000610352	
6.8869	0.523987	0	
6.88751	0.52002	0	
6.88721	0.517883	0	
6.88782	0.514832	0.000762939	
6.88721	0.512695	0.000152588	
6.88751	0.508423	-0.000152588	
6.88751	0.50415	0.000152588	
6.88782	0.50293	-0.000152588	
6.88721	0.499878	0.000457764	
6.88751	0.498047	0.000152588	
6.8869	0.493774	0	
6.8869	0.490112	0.000762939	
6.8869	0.488586	0.0012207	
6.88751	0.485229	0.0012207	
6.8869	0.483093	0.000152588	
6.88843	0.479126	0.000915527	
6.8869	0.474854	0.000610352	
6.88721	0.473022	0.000305176	
6.8869	0.469666	0.000457764	
6.88812	0.468445	0.000152588	
6.88751	0.464783	0.000457764	
6.88751	0.460815	0.000610352	
6.88782	0.458069	0	
6.8869	0.455322	0.000610352	
6.88721	0.450439	0.000915527	
6.88751	0.448914	0.00106812	
6.8869	0.445862	0.000610352	
6.88721	0.444031	0.000152588	
6.88751	0.440369	0.00137329	
6.88751	0.436096	0.000457764	
6.88751	0.433655	0.000457764	
6.88751	0.431213	-0.000152588	
6.8869	0.429688	-0.000610352	
6.88782	0.426025	0.000152588	
6.89056	0.421448	0.000305176	
6.8927	0.419006	0	
6.89209	0.416565	0.000305176	
6.89209	0.411377	-0.000305176	
6.8924	0.409851	0.00106812	
6.8924	0.406189	0.000610352	
6.8924	0.404663	0.000152588	
6.89301	0.401306	0.000457764	
6.89209	0.396729	0	
6.89331	0.395203	0.000610352	
6.89209	0.391846	0.000152588	
6.89209	0.387268	-0.000610352	
6.89178	0.384827	0.000152588	
6.8924	0.382385	-0.000152588	
6.8924	0.380249	0.000457764	
6.89209	0.376892	0.000457764	
6.8924	0.372314	0	
6.8924	0.370483	0.000915527	
6.89178	0.367432	0.000610352	
6.8924	0.363159	0.0012207	
6.89209	0.361328	0.000305176	
6.8924	0.357666	0.000762939	
6.8924	0.35553	0.000762939	
6.89178	0.352478	0.000305176	
6.89209	0.348206	0.000305176	
6.8927	0.345459	0	
6.8924	0.342102	0.000457764	
6.89209	0.338135	0	
6.89178	0.335999	0.000152588	
6.89209	0.332336	0.000762939	
6.8924	0.332031	0.000762939	
6.8924	0.328064	0.00106812	
6.8927	0.322571	0.000305176	
6.8924	0.32135	0	
6.8924	0.317383	0.00106812	
6.8927	0.313721	0.000457764	
6.8924	0.311584	0.000762939	
6.89209	0.308533	0	
6.89209	0.306396	-0.000915527	
6.8924	0.303345	0	
6.89209	0.299072	0.000457764	
6.89331	0.296631	0.000152588	
6.8924	0.293274	0.000152588	
6.8924	0.291748	-0.000152588	
6.89301	0.288391	0.0012207	
6.89301	0.285034	0.000457764	
6.8927	0.281982	0.000457764	
6.89178	0.279236	0.000152588	
6.8927	0.2771	0.000152588	
6.8927	0.274048	0.000457764	
6.89209	0.269775	0.000152588	
6.89178	0.267334	-0.000457764	
6.8927	0.264587	0.000305176	
6.89209	0.263062	-0.000152588	
6.8924	0.259399	0.000305176	
6.89178	0.254822	0.000457764	
6.8924	0.252686	0.000152588	
6.89209	0.250244	0.000610352	
6.89178	0.247803	0.000915527	
6.89209	0.244446	0.000915527	
6.8924	0.239868	0.000305176	
6.8927	0.238037	0.000915527	
6.8924	0.235291	0.000457764	
6.89209	0.233459	0.000305176	
6.89209	0.230103	0.000915527	
6.8927	0.228882	0.000457764	
6.8924	0.22522	0.000457764	
6.8924	0.220947	0.000457764	
6.8924	0.218506	-0.000152588	
6.89209	0.215454	0.000762939	
6.8924	0.213318	0.000762939	
6.8924	0.210266	0.00137329	
6.8927	0.205078	0.000610352	
6.8927	0.204163	0.000152588	
6.8927	0.200806	0.0012207	
6.8924	0.198364	0.000305176	
6.8927	0.195923	0.000152588	
6.89148	0.193787	0	
6.89209	0.19104	-0.000762939	
6.89148	0.188599	0	
6.8927	0.184631	0.000610352	
6.8927	0.180969	-0.000152588	
6.89301	0.180054	0.000305176	
6.8924	0.176086	-0.000152588	
6.8927	0.174561	0.000915527	
6.89301	0.170898	0.000762939	
6.8924	0.169373	0.000610352	
6.8924	0.16571	0.000305176	
6.89209	0.16449	0	
6.8927	0.162048	0.000457764	
6.8927	0.159302	0.000305176	
6.89209	0.156555	0	
6.89209	0.155029	0	
6.89209	0.151672	-0.000610352	
6.89178	0.1474	0.000610352	
6.89209	0.144653	-0.000152588	
6.89178	0.142212	0.000305176	
6.89178	0.139771	0.000610352	
6.8924	0.136719	0.000610352	
6.8924	0.135193	0.0012207	
6.8927	0.132141	0.000305176	
6.8927	0.13031	0.00106812	
6.89209	0.126038	0.000305176	
6.8924	0.125122	0.000152588	
6.89301	0.122986	0.000457764	
6.8924	0.120239	0.000152588	
6.8924	0.117493	0.000152588	
6.8924	0.115662	0.000152588	
6.89209	0.112305	-0.000152588	
6.89178	0.110779	0.000762939	
6.89209	0.108032	0.000915527	
6.89148	0.105896	0.0012207	
6.89209	0.102844	0.000610352	
6.89209	0.100708	0.000152588	
6.89178	0.0982666	0.00106812	
6.89301	0.0958252	0.000305176	
6.89209	0.0924683	0.000457764	
6.89209	0.0912476	0.000152588	
6.89148	0.0906372	-0.000762939	
6.8924	0.0869751	0.000305176	
6.89178	0.0860596	0.000457764	
6.8924	0.0814819	-0.000152588	
6.89209	0.0811768	0.000305176	
6.8924	0.0790405	-0.000152588	
6.89178	0.0775146	0.000915527	
6.89209	0.0738525	0.000762939	
6.8927	0.0720215	0.000457764	
6.89209	0.0689697	0	
6.8924	0.0668335	0.000305176	
6.89209	0.0671387	0.000762939	
6.89178	0.0634766	0.000457764	
6.89209	0.062561	-0.000610352	
6.89209	0.0592041	0.000152588	
6.89178	0.0576782	-0.000152588	
6.89301	0.0546265	0.000457764	
6.8924	0.0527954	0.000610352	
6.8924	0.0521851	0.000152588	
6.89301	0.0494385	0.000610352	
6.8927	0.0476074	0.000915527	
6.89178	0.0439453	0.00137329	
6.89178	0.0424194	0.000305176	
6.89209	0.0393677	0.000457764	
6.8927	0.0384521	0.000305176	
6.89178	0.0369263	0	
6.89209	0.0350952	0.000762939	
6.8924	0.0320435	-0.000152588	
6.8924	0.0292969	0.000305176	
6.89178	0.0280762	0.000762939	
6.89209	0.027771	0.000152588	
6.89209	0.0247192	0.000915527	
6.89178	0.0228882	0.000457764	
6.8927	0.0204468	0.0012207	
6.89178	0.0177002	0.000305176	
6.89209	0.0177002	0	
6.89301	0.0149536	0.00137329	
6.89178	0.0134277	0.000305176	
6.8924	0.0100708	0.000915527	
6.8927	0.00762939	0	
6.8927	0.00823975	-0.000610352	
6.8924	0.00518799	0.000457764	
6.8927	0.00335693	0.000305176	
6.8924	0.00305176	0.000305176	
6.89209	0.000305176	0	
6.8924	-0.000610352	0	
6.89209	-0.000915527	0.000762939	
6.89301	-0.00396729	0.000762939	
6.8927	-0.00640869	0.000457764	
6.8924	-0.00915527	0.000457764	
6.8927	-0.010376	0.000152588	
6.8924	-0.0109863	0.000305176	
6.89178	-0.0143433	0.000152588	
6.89209	-0.0158691	-0.000305176	
6.89148	-0.0161743	0	
6.8924	-0.0195313	-0.000152588	
6.8927	-0.020752	0.000457764	
6.89209	-0.0216675	0	
6.89209	-0.0238037	0	
6.89209	-0.0259399	0.000762939	
6.89148	-0.0259399	0.000457764	
6.89209	-0.0289917	0.00106812	
6.89178	-0.0299072	0.000457764	
6.89209	-0.0311279	0.000762939	
6.89209	-0.03479	0.000610352	
6.8924	-0.0354004	0.000152588	
6.89209	-0.0363159	0.000610352	
6.89209	-0.0360107	0.000457764	
6.8927	-0.0393677	0.000152588	
6.89209	-0.0402832	0.000152588	
6.89209	-0.0411987	-0.000305176	
6.89209	-0.0436401	0.000610352	
6.89178	-0.0448608	0.000915527	
6.88965	-0.0454712	0.0012207	
6.88721	-0.0485229	0.000610352	
6.8869	-0.0500488	0.000457764	
6.88721	-0.050354	0.000762939	
6.88721	-0.0509644	0.000610352	
6.88721	-0.0537109	0.000762939	
6.88721	-0.0552368	0.000152588	
6.88751	-0.0558472	-0.000610352	
6.88721	-0.0588989	0.000152588	
6.8869	-0.0601196	0.000305176	
6.88721	-0.0604248	0	
6.88782	-0.0610352	0.000305176	
6.8869	-0.0634766	0	
6.8869	-0.0653076	0.000915527	
6.88751	-0.0656128	0.000457764	
6.88721	-0.0689697	0.000610352	
6.88751	-0.0698853	0.000152588	
6.88721	-0.0701904	-0.000152588	
6.88721	-0.071106	0.000305176	
6.88721	-0.072937	0.000152588	
6.88721	-0.0750732	-0.000457764	
6.88721	-0.0744629	0	
6.88721	-0.0753784	-0.000305176	
6.88751	-0.078125	0.000457764	
6.88751	-0.0793457	0.000152588	
6.88751	-0.0796509	0	
6.88721	-0.0799561	0.000915527	
6.8869	-0.0827026	0.000610352	
6.8869	-0.0845337	0.00106812	
6.8869	-0.0848389	0.000457764	
6.8869	-0.0848389	0.000610352	
6.88721	-0.088501	0.000610352	
6.88751	-0.0897217	-0.000152588	
6.88751	-0.0891113	0.000457764	
6.88751	-0.090332	0	
6.88782	-0.0927734	0.000152588	
6.88721	-0.0939941	0.000762939	
6.8866	-0.0942993	-0.000152588	
6.88721	-0.0949097	0.000915527	
6.88751	-0.0973511	0.000457764	
6.88721	-0.098877	0.00106812	
6.8869	-0.0991821	0.000457764	
6.88721	-0.0991821	0.000305176	
6.8869	-0.100098	0.0012207	
6.88782	-0.103455	0.000610352	
6.88751	-0.10376	0.000610352	
6.88751	-0.104675	0.000305176	
6.8866	-0.104675	-0.000762939	
6.8869	-0.107727	0.000152588	
6.88721	-0.108948	0.000457764	
6.88721	-0.109253	0.000152588	
6.8869	-0.109558	0.000305176	
6.88751	-0.109558	-0.000305176	
6.88751	-0.112915	0.000915527	
6.88812	-0.113831	0.000762939	
6.88782	-0.114136	0.000305176	
6.88751	-0.114746	0.000305176	
6.88751	-0.114136	0	
6.88751	-0.117188	0.000610352	
6.8869	-0.119019	-0.000152588	
6.88721	-0.119019	-0.000152588	
6.88751	-0.119019	0	
6.8869	-0.12207	-0.000152588	
6.88721	-0.123901	0.000457764	
6.88721	-0.123901	0	
6.88721	-0.124207	-0.000152588	
6.8869	-0.123596	0.000457764	
6.88751	-0.124512	0.000915527	
6.8869	-0.127258	0.00167847	
6.88721	-0.128784	0.000305176	
6.8869	-0.129089	0.000762939	
6.88721	-0.129089	0.000305176	
6.88782	-0.130005	0	
6.8869	-0.132141	0.000152588	
6.88721	-0.133057	0.000457764	
6.8869	-0.133667	0.000152588	
6.88751	-0.134277	0.000457764	
6.8869	-0.133972	0	
6.8869	-0.136719	0.000762939	
6.88782	-0.137939	0.000457764	
6.88721	-0.13855	0.0012207	
6.88751	-0.13855	0.000152588	
6.88751	-0.138245	0.000610352	
6.88751	-0.139465	0.000152588	
6.88721	-0.141907	0.000915527	
6.88782	-0.143127	0.000610352	
6.88721	-0.144043	0.000152588	
6.88721	-0.143738	-0.000915527	
6.88721	-0.143738	0.000152588	
6.8869	-0.144043	0.000610352	
6.88721	-0.147095	0.000152588	
6.88751	-0.14801	0.000457764	
6.88751	-0.14801	0.000457764	
6.8869	-0.148315	0	
6.88751	-0.147705	0.000915527	
6.88782	-0.148621	0.000610352	
6.88721	-0.151672	0.000152588	
6.88721	-0.153198	0	
6.88721	-0.152893	0.000762939	
6.88751	-0.153809	0.000152588	
6.88782	-0.153198	-0.000762939	
6.8869	-0.154114	-0.000152588	
6.88721	-0.156555	0.000152588	
6.88721	-0.158081	-0.000457764	
6.88782	-0.158081	0.000457764	
6.8866	-0.157776	0	
6.8869	-0.157776	0.000915527	
6.88721	-0.157776	0.000762939	
6.88782	-0.158386	0.00137329	
6.88721	-0.161743	0.000152588	
6.8869	-0.162659	0.000610352	
6.88751	-0.163269	0.000152588	
6.8869	-0.162354	0.000610352	
6.8869	-0.162659	-0.000152588	
6.88751	-0.163269	0.000762939	
6.88446	-0.166626	0.000305176	
6.88293	-0.167236	0.000457764	
6.88293	-0.167542	-0.000152588	
6.88232	-0.168152	0.000610352	
6.88232	-0.168152	0.000762939	
6.88232	-0.168762	0.0012207	
6.88263	-0.168762	0.000610352	
6.88202	-0.171204	0.000457764	
6.88293	-0.172424	0.000152588	
6.88263	-0.172119	0.0012207	
6.88263	-0.173035	0.000610352	
6.88232	-0.172729	0.000305176	
6.88232	-0.173035	-0.000610352	
6.88232	-0.172424	0.000152588	
6.88263	-0.17334	0.000152588	
6.88324	-0.175781	0.000305176	
6.88202	-0.177307	0.000610352	
6.88232	-0.177917	0.000305176	
6.88263	-0.178223	0.000152588	
6.88202	-0.177307	0.000762939	
6.88263	-0.178223	0.000457764	
6.88324	-0.178528	0.000305176	
6.88171	-0.180664	-0.000152588	
6.88232	-0.18219	0.000915527	
6.88293	-0.182495	-0.000152588	
6.88263	-0.183105	-0.000152588	
6.88232	-0.1828	0	
6.88263	-0.183105	0.000152588	
6.88232	-0.1828	-0.000152588	
6.88263	-0.186157	0.000457764	
6.88202	-0.187683	0	
6.88263	-0.187988	0.000457764	
6.88232	-0.188904	0.000762939	
6.88293	-0.187683	0.00152588	
6.88202	-0.187378	0	
6.88263	-0.187378	0.000762939	
6.88263	-0.187683	0.000457764	
6.88263	-0.19104	0.000457764	
6.88202	-0.191956	-0.000305176	
6.88263	-0.191956	0.000610352	
6.88263	-0.192261	0.000152588	
6.88263	-0.191956	0.000152588	
6.88202	-0.192871	0.000152588	
6.88293	-0.192871	0.000457764	
6.88171	-0.195618	0.000915527	
6.88232	-0.197449	0.000762939	
6.88263	-0.197449	0.000457764	
6.88202	-0.196533	0.000762939	
6.88202	-0.196838	0.000152588	
6.88232	-0.197144	0.000762939	
6.88263	-0.197144	0.000762939	
6.88263	-0.197144	0	
6.88202	-0.200195	-0.000610352	
6.88232	-0.202026	0.000152588	
6.88232	-0.202637	0.000457764	
6.88293	-0.202637	0	
6.88263	-0.201721	0.000457764	
6.88232	-0.202332	0.000152588	
6.88232	-0.202942	0.000152588	
6.88263	-0.205383	0.000915527	
6.88263	-0.206604	0.000915527	
6.88232	-0.20752	0.000457764	
6.88171	-0.20752	0	
6.88232	-0.207214	0.00106812	
6.88293	-0.20752	-0.000305176	
6.88202	-0.20752	-0.000762939	
6.88263	-0.206909	-0.000152588	
6.88263	-0.210876	0	
6.88232	-0.211792	-0.000305176	
6.88202	-0.212097	0.000915527	
6.88232	-0.211487	0.000152588	
6.88263	-0.212097	0.000152588	
6.88232	-0.212402	0.000915527	
6.88263	-0.212708	0.00137329	
6.88232	-0.215454	0.000457764	
6.88171	-0.21698	0.000762939	
6.87866	-0.217285	0.000457764	
6.87744	-0.217285	0.000610352	
6.87714	-0.216675	-0.000152588	
6.87744	-0.217285	0.000457764	
6.87714	-0.21759	0.000152588	
6.87744	-0.220337	0.000457764	
6.87683	-0.221863	0.000152588	
6.87714	-0.221863	0.000610352	
6.87714	-0.221863	0.000762939	
6.87744	-0.222168	0.00106812	
6.87775	-0.222168	0.000762939	
6.87744	-0.222168	0.000457764	
6.87683	-0.225525	0.000152588	
6.87775	-0.22644	0.00106812	
6.87714	-0.226746	0.000610352	
6.87744	-0.226746	0.000305176	
6.87744	-0.227051	-0.000610352	
6.87744	-0.227051	0	
6.87775	-0.226746	0.000457764	
6.87714	-0.230103	0.000152588	
6.87744	-0.231018	0.000457764	
6.87714	-0.231628	0.000457764	
6.87744	-0.231934	0.000305176	
6.87805	-0.231323	0.000762939	
6.87622	-0.231323	0.000915527	
6.87714	-0.232239	0.000305176	
6.87714	-0.23468	-0.000152588	
6.87744	-0.236206	0.000762939	
6.87744	-0.236206	-0.000152588	
6.87744	-0.236511	-0.000305176	
6.87775	-0.236511	-0.000152588	
6.87744	-0.236511	-0.000152588	
6.87683	-0.239563	-0.000152588	
6.87683	-0.241089	0.000610352	
6.87775	-0.241089	0	
6.87714	-0.240784	0.000305176	
6.87805	-0.241089	0.000762939	
6.87775	-0.241394	0.00152588	
6.87775	-0.242004	0.000305176	
6.87683	-0.244141	0.000457764	
6.87653	-0.245972	0.000457764	
6.87775	-0.246887	0.000762939	
6.87744	-0.246582	-0.000457764	
6.87775	-0.245972	0.000457764	
6.87805	-0.246887	0.000152588	
6.87775	-0.249329	0.000610352	
6.87714	-0.25116	0.000152588	
6.87683	-0.251465	0.000610352	
6.87714	-0.25116	0.000610352	
6.87592	-0.250854	0.0012207	
6.87775	-0.25116	0.000762939	
6.87805	-0.251465	0.000305176	
6.87744	-0.254211	0.000305176	
6.87744	-0.255737	0.00106812	
6.87775	-0.256042	0.000915527	
6.87714	-0.255737	0.000305176	
6.87744	-0.256958	-0.000610352	
6.87775	-0.256653	-0.000152588	
6.87744	-0.26001	0.000152588	
6.87714	-0.260925	0.000152588	
6.87714	-0.26123	0.000457764	
6.87744	-0.260925	0	
6.87439	-0.260315	0	
6.87317	-0.261536	0.000915527	
6.87256	-0.263672	0.000305176	
6.87164	-0.266113	-0.000152588	
6.87256	-0.265808	0	
6.87256	-0.265503	0.000305176	
6.87256	-0.265808	0	
6.87225	-0.266418	-0.000457764	
6.87256	-0.268555	0	
6.87225	-0.270081	0.000152588	
6.87286	-0.271301	-0.000152588	
6.87317	-0.270386	0.000610352	
6.87347	-0.271301	0.000305176	
6.87225	-0.270691	0.000305176	
6.87286	-0.274963	0.000457764	
6.87286	-0.275269	0.00167847	
6.87256	-0.276489	0.000457764	
6.87256	-0.275879	0.000457764	
6.87256	-0.275879	0.000305176	
6.87195	-0.275879	0.000610352	
6.87225	-0.279236	-0.000152588	
6.87286	-0.280151	0.000305176	
6.87225	-0.281372	0.000305176	
6.87286	-0.281067	0.000305176	
6.87195	-0.280151	0	
6.87195	-0.284119	0.000457764	
6.87286	-0.285034	0.000610352	
6.87225	-0.28595	0.000915527	
6.87256	-0.286255	0.000915527	
6.87286	-0.28595	0.000610352	
6.87256	-0.28595	0.000152588	
6.87286	-0.288696	0.00106812	
6.87225	-0.290527	0.000762939	
6.87256	-0.290222	0.000457764	
6.87225	-0.290222	-0.000915527	
6.87225	-0.290222	-0.000152588	
6.87286	-0.290222	0.000762939	
6.87256	-0.294189	0.000305176	
6.87256	-0.295105	-0.000152588	
6.87286	-0.295715	0.000305176	
6.87286	-0.29541	0	
6.87256	-0.295105	0.00152588	
6.87195	-0.29541	0.000457764	
6.87317	-0.299377	0	
6.87225	-0.299683	0	
6.87256	-0.300293	0.000610352	
6.87225	-0.300293	0.000457764	
6.87225	-0.299988	-0.000610352	
6.87256	-0.303955	0	
6.87225	-0.305176	0.000152588	
6.87256	-0.305786	-0.000305176	
6.87286	-0.304565	0.000762939	
6.86951	-0.304565	0.000305176	
6.86798	-0.305786	0.000152588	
6.86737	-0.308228	0.000915527	
6.86798	-0.310059	0.00137329	
6.86737	-0.310059	0.000610352	
6.86768	-0.310059	0.000457764	
6.86737	-0.310059	0.000457764	
6.86737	-0.310059	0.000457764	
6.86768	-0.31311	-0.000305176	
6.86798	-0.314331	0.000305176	
6.86798	-0.314636	0.000152588	
6.86737	-0.314636	0.000152588	
6.86829	-0.315247	0.000152588	
6.86737	-0.318604	0.000762939	
6.86768	-0.319214	0.000915527	
6.86768	-0.319519	0.000915527	
6.86768	-0.319519	0.000457764	
6.86798	-0.319519	0.000457764	
6.86707	-0.320435	0.000152588	
6.86737	-0.323181	0.000915527	
6.86737	-0.324402	0.000762939	
6.86737	-0.324707	0.000762939	
6.86737	-0.325317	-0.000610352	
6.86768	-0.324707	-0.000152588	
6.86737	-0.325012	0.000305176	
6.86829	-0.328064	0.000305176	
6.86768	-0.328979	0.000457764	
6.86798	-0.3302	0.000457764	
6.86829	-0.330505	-0.000152588	
6.86768	-0.329285	0.000915527	
6.86676	-0.332336	0.000610352	
6.86768	-0.334778	0	
6.86768	-0.334778	0.000152588	
6.86737	-0.334473	0.000457764	
6.86768	-0.334778	0.000305176	
6.86768	-0.334473	-0.000305176	
6.86829	-0.337524	0.000152588	
6.86737	-0.339661	-0.000152588	
6.86737	-0.339661	-0.000152588	
6.86707	-0.339661	0.000610352	
6.86737	-0.339661	0.000305176	
6.86768	-0.33905	0.000305176	
6.86768	-0.342407	0.000762939	
6.86737	-0.344238	0.00198364	
6.86798	-0.344543	0.000457764	
6.86829	-0.344849	0.000762939	
6.86768	-0.344849	0.000457764	
6.86829	-0.347595	0.000457764	
6.86768	-0.348816	-0.000152588	
6.86432	-0.348511	0.000610352	
6.8634	-0.349121	0.000152588	
6.8631	-0.349731	0.000305176	
6.8631	-0.350037	-0.000152588	
6.86249	-0.352783	0.000457764	
6.8631	-0.354004	0.00106812	
6.86279	-0.353699	0.000915527	
6.86279	-0.354309	0.000610352	
6.86371	-0.354309	0.000610352	
6.86249	-0.354309	0	
6.86249	-0.357666	0.00106812	
6.8631	-0.359192	0.0012207	
6.8631	-0.358887	0.000152588	
6.86279	-0.358887	-0.000762939	
6.86279	-0.359192	0.000152588	
6.8631	-0.359192	0.000152588	
6.86249	-0.362549	0.000762939	
6.86279	-0.364075	0.000305176	
6.86249	-0.364685	0.000610352	
6.86249	-0.36377	0.000152588	
6.86249	-0.36377	0.0012207	
6.86279	-0.36438	0.000457764	
6.86279	-0.367432	0.000152588	
6.86249	-0.368958	0.000152588	
6.86188	-0.368347	0.000915527	
6.86249	-0.369568	0	
6.86279	-0.369263	-0.000305176	
6.8631	-0.372314	0	
6.8631	-0.37384	0.000152588	
6.86249	-0.373535	-0.000305176	
6.86279	-0.373535	0.000305176	
6.86279	-0.373535	0.000457764	
6.86279	-0.374451	0.000152588	
6.86279	-0.377197	0.000610352	
6.8634	-0.378723	0.00167847	
6.86249	-0.379333	0.000152588	
6.86279	-0.378418	0.000457764	
6.86279	-0.378723	0.000305176	
6.8631	-0.379333	0.000457764	
6.8631	-0.382385	-0.000152588	
6.86279	-0.382996	0.000457764	
6.86279	-0.383301	0	
6.86218	-0.384216	0.000457764	
6.86279	-0.383606	0.000152588	
6.86249	-0.383911	0.000610352	
6.86218	-0.386963	0.000152588	
6.8631	-0.388489	0.0012207	
6.85883	-0.388794	0.000610352	
6.85822	-0.388489	0.000457764	
6.8573	-0.389099	0.000152588	
6.85791	-0.388489	0.000915527	
6.8573	-0.391235	0.000610352	
6.85852	-0.393372	0.000305176	
6.8576	-0.393677	-0.000610352	
6.85822	-0.393982	0	
6.85791	-0.393066	0.000610352	
6.85852	-0.393677	0.000305176	
6.85791	-0.396729	0.000152588	
6.8576	-0.397339	0.000152588	
6.8573	-0.39856	0.000305176	
6.85852	-0.397949	0.00106812	
6.8576	-0.39856	0.000305176	
6.85822	-0.39856	0.000152588	
6.85791	-0.399475	0.000152588	
6.85791	-0.401001	0.000762939	
6.85791	-0.403748	0	
6.8576	-0.402832	-0.000305176	
6.85822	-0.402832	0.000152588	
6.85791	-0.403442	0	
6.85822	-0.403442	-0.000152588	
6.8576	-0.406799	0.000305176	
6.85822	-0.407715	0.000152588	
6.85791	-0.40802	0.000152588	
6.8576	-0.407715	0.000915527	
6.85822	-0.408936	0.00183105	
6.8576	-0.40802	0.000305176	
6.85822	-0.411682	0.000610352	
6.85791	-0.412903	0.000610352	
6.85852	-0.412903	0.000610352	
6.85822	-0.413513	-0.000152588	
6.85791	-0.413208	0.000457764	
6.85822	-0.413208	0.000152588	
6.85852	-0.416565	0.000915527	
6.85791	-0.418091	0	
6.85791	-0.418091	0.000610352	
6.85699	-0.418396	0.000915527	
6.85486	-0.417786	0.0012207	
6.85333	-0.417786	0.000305176	
6.85303	-0.418396	0.000457764	
6.85272	-0.421143	0.000152588	
6.85303	-0.422363	0.00106812	
6.85272	-0.422668	0.000762939	
6.85303	-0.423279	0.000152588	
6.85303	-0.422363	-0.000915527	
6.85303	-0.422974	-0.000152588	
6.85272	-0.424805	0.000305176	
6.85303	-0.427246	0.000457764	
6.85272	-0.427551	0.000152588	
6.85272	-0.427551	0.000305176	
6.85211	-0.427551	0	
6.85242	-0.427856	0.000915527	
6.85303	-0.427856	0.000457764	
6.85272	-0.431213	0	
6.85272	-0.432739	0.000152588	
6.85303	-0.433044	0.000610352	
6.85211	-0.432739	0.000152588	
6.85303	-0.432434	-0.000457764	
6.85242	-0.43335	0.000152588	
6.85303	-0.435791	0.000152588	
6.85333	-0.437622	0	
6.85242	-0.437927	0.000762939	
6.85272	-0.437622	0	
6.85242	-0.437317	0.000457764	
6.85303	-0.437622	0.00106812	
6.85333	-0.437927	0.00152588	
6.85303	-0.441284	0.000305176	
6.85333	-0.4422	0.000610352	
6.85242	-0.4422	0.000610352	
6.85303	-0.4422	0.000457764	
6.85272	-0.442505	0.000152588	
6.84967	-0.4422	0.000305176	
6.84845	-0.443115	0	
6.84845	-0.445862	0.000915527	
6.84784	-0.446777	-0.000152588	
6.84753	-0.447083	0.000610352	
6.84814	-0.447388	0.000457764	
6.84784	-0.447388	0.00106812	
6.84784	-0.447083	0.000762939	
6.84784	-0.447693	0.000610352	
6.84814	-0.450439	0.000305176	
6.84845	-0.45166	0.0012207	
6.84814	-0.452271	0.000762939	
6.84753	-0.452576	0.000610352	
6.84753	-0.452271	-0.000915527	
6.84753	-0.452576	-0.000152588	
6.84845	-0.453491	0.000305176	
6.84723	-0.456238	0.000152588	
6.84723	-0.456848	0.000305176	
6.84845	-0.456848	0	
6.84753	-0.457458	-0.000152588	
6.84814	-0.456238	0.000915527	
6.84845	-0.458069	0.000610352	
6.84784	-0.458069	0.000152588	
6.84753	-0.460815	0	
6.84814	-0.461426	0.000915527	
6.84814	-0.462036	0.000152588	
6.84784	-0.462341	-0.000152588	
6.84845	-0.462341	0.000152588	
6.84814	-0.462036	0	
6.84753	-0.462036	0	
6.84509	-0.462341	0.000610352	
6.84265	-0.465393	0.000152588	
6.84326	-0.466919	0.000457764	
6.84296	-0.467529	0.00106812	
6.84265	-0.466614	0.00167847	
6.84357	-0.467224	0.000610352	
6.84387	-0.467224	0.000610352	
6.84326	-0.466919	0.000610352	
6.84326	-0.467224	0.000610352	
6.84296	-0.470581	0.000152588	
6.84296	-0.471497	0.000457764	
6.84296	-0.472412	0	
6.84235	-0.471497	0.000457764	
6.84326	-0.472412	0	
6.84296	-0.471497	0.000305176	
6.84326	-0.472107	0.000762939	
6.84204	-0.471497	0.00106812	
6.84326	-0.474548	0.000152588	
6.84357	-0.476074	0.000457764	
6.84296	-0.476379	0.000305176	
6.84326	-0.476379	0.000915527	
6.84296	-0.476379	0.000762939	
6.84296	-0.476379	0.000762939	
6.84235	-0.47699	-0.000762939	
6.84265	-0.476685	-0.000305176	
6.84296	-0.47699	0.000305176	
6.84326	-0.480347	0.000152588	
6.8399	-0.481567	0.000152588	
6.83777	-0.481262	0	
6.83746	-0.481262	0	
6.83777	-0.482178	0.000915527	
6.83746	-0.481262	0.000915527	
6.83838	-0.480957	0.000305176	
6.83746	-0.481567	0	
6.83716	-0.481567	0.000762939	
6.83807	-0.481567	-0.000152588	
6.83807	-0.482178	-0.000152588	
6.83838	-0.484619	0	
6.83807	-0.486755	0.000152588	
6.83746	-0.48645	-0.000305176	
6.83838	-0.48645	0.000762939	
6.83838	-0.48645	0.000305176	
6.83777	-0.487061	0.000152588	
6.83807	-0.485535	0.000762939	
6.83777	-0.486145	0.00167847	
6.83777	-0.486145	0.000305176	
6.83838	-0.486755	0.000457764	
6.83838	-0.486145	0.000915527	
6.83807	-0.486755	0.000457764	
6.83838	-0.490112	-0.000152588	
6.83807	-0.490723	0	
6.83777	-0.491943	0.000610352	
6.83472	-0.491333	0.000457764	
6.83319	-0.491333	-0.000152588	
6.83319	-0.491333	0.000305176	
6.83289	-0.491028	0.000610352	
6.83258	-0.491333	0.000610352	
6.83319	-0.491333	0.000762939	
6.83258	-0.491333	0.000305176	
6.83289	-0.492249	0.000152588	
6.8335	-0.491638	0.0012207	
6.83289	-0.491028	0.000915527	
6.83289	-0.491028	0.000610352	
6.83228	-0.491333	-0.000610352	
6.83258	-0.491943	-0.000457764	
6.8335	-0.491333	0	
6.83289	-0.491333	0.000152588	
6.83319	-0.491943	0.000305176	
6.83319	-0.491638	0	
6.83258	-0.491333	0	
6.83289	-0.491028	0.000762939	
6.8335	-0.491943	0.000457764	
6.83258	-0.491943	0.000610352	
6.8335	-0.4953	0	
6.83228	-0.495911	0.000915527	
6.83319	-0.496521	0.000152588	
6.8335	-0.496521	0.000152588	
6.82983	-0.496521	0.000305176	
6.82922	-0.496216	0	
6.82709	-0.493164	-0.000152588	
6.8277	-0.491638	0.000457764	
6.82739	-0.491333	0	
6.82861	-0.491333	0.000305176	
6.8277	-0.491638	0.000915527	
6.82831	-0.492249	0.00167847	
6.828	-0.491333	0.000762939	
6.8277	-0.491943	0.000457764	
6.8277	-0.491638	0.000915527	
6.828	-0.491638	0.000457764	
6.828	-0.490723	-0.000152588	
6.82861	-0.491333	0.000610352	
6.82831	-0.491333	0.000457764	
6.828	-0.491943	0.000762939	
6.828	-0.491333	0	
6.82831	-0.491333	0.000762939	
6.82831	-0.491028	0.000457764	
6.828	-0.491333	0.000762939	
6.828	-0.491333	0.000610352	
6.82831	-0.491638	0.000762939	
6.8277	-0.488281	0.000457764	
6.82526	-0.486145	0.000915527	
6.82373	-0.486755	0.000610352	
6.82312	-0.48645	0.000610352	
6.82312	-0.48645	-0.000610352	
6.82312	-0.486755	-0.000305176	
6.82343	-0.48645	0.000152588	
6.82373	-0.48645	0.000457764	
6.82373	-0.486755	0.000152588	
6.82343	-0.483398	0.000305176	
6.82312	-0.481873	0	
6.82373	-0.480957	0.00106812	
6.82373	-0.481262	0.000305176	
6.82343	-0.481262	0.000305176	
6.82343	-0.481567	0	
6.82343	-0.477905	0.0012207	
6.82312	-0.477295	-0.000152588	
6.82343	-0.476379	0	
6.82343	-0.476685	-0.000152588	
6.82281	-0.476379	0.000152588	
6.82251	-0.473633	-0.000305176	
6.82373	-0.472107	0.000305176	
6.82281	-0.471191	0	
6.82068	-0.471497	0.000305176	
6.81824	-0.471497	0.000915527	
6.81793	-0.468445	0.00183105	
6.81793	-0.467529	0.000762939	
6.81793	-0.466919	0.000152588	
6.81824	-0.466919	0.000762939	
6.81854	-0.463257	0.000762939	
6.81793	-0.462952	0	
6.81854	-0.461426	0.000915527	
6.81793	-0.458984	0.000305176	
6.81854	-0.457458	0.0012207	
6.81854	-0.456848	-0.000152588	
6.81793	-0.456543	0.000610352	
6.81824	-0.453491	0.000457764	
6.81793	-0.452271	0.000610352	
6.81885	-0.451965	0.000762939	
6.81793	-0.448914	0.000762939	
6.81854	-0.447998	0.000305176	
6.81854	-0.447388	0.000915527	
6.81732	-0.44342	0.000610352	
6.81793	-0.4422	0.000762939	
6.81793	-0.439148	-0.000762939	
6.81519	-0.437927	-0.000305176	
6.81396	-0.437317	0.000152588	
6.81305	-0.434265	0.000457764	
6.81335	-0.432434	0	
6.81305	-0.429382	0	
6.81305	-0.428162	-0.000152588	
6.81305	-0.427246	0.00106812	
6.81274	-0.424194	0.000457764	
6.81305	-0.422668	0.000610352	
6.81305	-0.419006	0	
6.81305	-0.418396	0.000915527	
6.81274	-0.413818	-0.000152588	
6.81366	-0.412292	-0.000152588	
6.81274	-0.409546	-0.000305176	
6.81335	-0.407715	0.000152588	
6.81427	-0.404358	0	
6.81366	-0.402832	0.000457764	
6.81305	-0.39978	0.000152588	
6.81335	-0.398254	0.000305176	
6.81305	-0.394592	0.000915527	
6.81366	-0.392761	0.00198364	
6.81305	-0.39093	0.000305176	
6.8103	-0.388184	0.000152588	
6.80878	-0.384827	0.000762939	
6.80878	-0.380554	0.000610352	
6.80786	-0.378113	-0.000152588	
6.80847	-0.375671	0.000610352	
6.80817	-0.37384	0	
6.80786	-0.370178	0.000762939	
6.80878	-0.365906	-0.000152588	
6.80786	-0.364075	0.000610352	
6.80817	-0.360107	0.000762939	
6.80786	-0.35675	0.000915527	
6.80817	-0.353088	0.000457764	
6.80878	-0.350342	0.000457764	
6.80878	-0.345459	0.000152588	
6.80786	-0.343628	0.00106812	
6.80847	-0.340881	0.000305176	
6.80878	-0.336304	0.000762939	
6.80817	-0.334778	-0.000915527	
6.80878	-0.330505	0.000152588	
6.80847	-0.326233	0.000152588	
6.80786	-0.324402	0.000610352	
6.80481	-0.321045	0.000152588	
6.8042	-0.316162	-0.000152588	
6.80298	-0.311584	0	
6.80359	-0.309448	0.0012207	
6.80389	-0.306702	0.000610352	
6.80328	-0.301819	0.000457764	
6.80328	-0.296631	0.000457764	
6.80328	-0.292358	0.000915527	
6.80328	-0.289917	0.000305176	
6.80389	-0.28656	0	
6.80359	-0.281982	0.000152588	
6.80298	-0.277405	0.000152588	
6.80328	-0.271912	-0.000305176	
6.80359	-0.267944	0.000305176	
6.80328	-0.265808	0.000152588	
6.80328	-0.262146	0.000457764	
6.80298	-0.257568	0.000610352	
6.80328	-0.252686	0.00152588	
6.80328	-0.247803	0.000762939	
6.80359	-0.242615	0.000457764	
6.80359	-0.238037	0.000610352	
6.80359	-0.235596	0.000610352	
6.79993	-0.232544	0	
6.79871	-0.227661	0.000762939	
6.7981	-0.222778	0.000610352	
6.7984	-0.218811	0.000762939	
6.7981	-0.213928	-0.000305176	
6.7984	-0.209045	0.000610352	
6.79901	-0.203552	0.000457764	
6.79901	-0.198364	0.000762939	
6.79901	-0.193481	0.000915527	
6.7984	-0.188904	0.000915527	
6.79932	-0.184021	0	
6.79871	-0.178833	0.00137329	
6.79871	-0.174561	0.000457764	
6.79901	-0.168762	0.000457764	
6.79871	-0.164185	-0.000305176	
6.7981	-0.159302	0	
6.7984	-0.154724	0.000152588	
6.79932	-0.149536	0.000457764	
6.7984	-0.144958	0	
6.79901	-0.139771	0.000152588	
6.7981	-0.134888	-0.000305176	
6.79535	-0.13031	0.00137329	
6.79352	-0.125122	0.000915527	
6.79382	-0.119934	0.000457764	
6.79382	-0.115967	0.000305176	
6.79382	-0.110474	0.000762939	
6.79413	-0.105591	0.000305176	
6.79413	-0.100098	0.000305176	
6.79321	-0.09552	0	
6.79352	-0.090332	0	
6.79382	-0.0854492	-0.000305176	
6.79321	-0.0805664	0.000305176	
6.79382	-0.0759888	0.000152588	
6.79352	-0.071106	0.000610352	
6.79321	-0.0662231	0.000762939	
6.79382	-0.0613403	0.00137329	
6.79382	-0.0570679	0.000610352	
6.79413	-0.0515747	0.000305176	
6.79382	-0.0427246	0.000610352	
6.79413	-0.0369263	0.000762939	
6.79352	-0.0323486	0.000152588	
6.79352	-0.0268555	0.000762939	
6.79077	-0.022583	0.000457764	
6.78955	-0.0170898	0.000457764	
6.78925	-0.012207	-0.000305176	
6.78894	-0.00793457	0.000457764	
6.78894	-0.00274658	0.000457764	
6.78925	0.00244141	0.000762939	
6.78925	0.0106812	0.0012207	
6.78925	0.0167847	0.000610352	
6.78864	0.0219727	0.000152588	
6.78864	0.0265503	0.0012207	
6.78925	0.0314331	0.000762939	
6.78894	0.0372314	0.000610352	
6.78955	0.0418091	-0.000457764	
6.78894	0.0454712	0	
6.78864	0.0518799	0.000152588	
6.78894	0.0592041	0.000915527	
6.78864	0.0665283	0	
6.78864	0.0704956	0	
6.78955	0.0765991	-0.000457764	
6.78955	0.0796509	0.0012207	
6.78802	0.0842285	0.000762939	
6.78558	0.0900269	0.000457764	
6.78436	0.0985718	0.000457764	
6.78467	0.10498	0.000762939	
6.78406	0.109253	0.000152588	
6.78375	0.114136	0.000152588	
6.78375	0.119934	-0.000152588	
6.78375	0.124207	0	
6.78314	0.129089	-0.000152588	
6.78406	0.134583	0.000610352	
6.78406	0.141907	0.000152588	
6.78345	0.148621	0.000305176	
6.78406	0.153809	0.000152588	
6.78375	0.158081	0.00183105	
6.78436	0.163574	0.000152588	
6.78375	0.168762	0.000457764	
6.78436	0.173035	0.000305176	
6.78406	0.179138	0.000610352	
6.78345	0.186157	0	
6.78375	0.193176	0.000610352	
6.78375	0.198059	0.000152588	
6.78375	0.202332	0.000457764	
6.78314	0.20752	0	
6.7804	0.212097	0.000610352	
6.77948	0.217285	0.000305176	
6.77826	0.222778	0.000762939	
6.77917	0.230103	0.00106812	
6.77887	0.237427	0.000610352	
6.77856	0.241394	0.000305176	
6.77887	0.246887	0.00106812	
6.77917	0.25116	0.000457764	
6.77887	0.256958	0.000762939	
6.77856	0.261841	-0.000610352	
6.77887	0.265808	-0.000152588	
6.77887	0.271606	0.000152588	
6.77856	0.275879	0.000610352	
6.77948	0.281372	0.000305176	
6.77979	0.289001	0.000305176	
6.77887	0.296021	0	
6.77887	0.300903	0.000915527	
6.77856	0.305481	0.000610352	
6.77795	0.311279	0.000305176	
6.77887	0.314941	0	
6.77917	0.320435	0.0012207	
6.77856	0.324707	0.000152588	
6.77612	0.32959	0.000152588	
6.77368	0.335693	-0.000610352	
6.77399	0.339966	0	
6.77368	0.344849	-0.000305176	
6.77429	0.349731	0.000457764	
6.77429	0.35553	0.000305176	
6.77429	0.359497	0.000152588	
6.77429	0.36438	0.000915527	
6.77429	0.368958	0.00167847	
6.77338	0.374451	0.000610352	
6.77399	0.379639	-0.000152588	
6.7746	0.384521	0.000610352	
6.7746	0.389099	0.000610352	
6.77429	0.393372	0.000152588	
6.77429	0.398865	0.000915527	
6.77368	0.403442	0	
6.77399	0.408936	0.000457764	
6.77368	0.413513	0	
6.77399	0.417786	0.000457764	
6.77429	0.422974	0.000457764	
6.77429	0.427551	0.000915527	
6.77094	0.43335	0.000762939	
6.7691	0.438232	0.000457764	
6.7691	0.443115	0.000152588	
6.76971	0.447998	0.00106812	
6.7688	0.453186	0.000610352	
6.7691	0.457764	0.000457764	
6.76849	0.462646	-0.000305176	
6.76849	0.467224	-0.000305176	
6.76941	0.471802	0.000305176	
6.76941	0.476379	0.000762939	
6.7688	0.482178	0.000152588	
6.7691	0.487061	0	
6.7691	0.491333	0	
6.7691	0.493164	0.00106812	
6.7688	0.496826	0.000457764	
6.76849	0.501404	0.000457764	
6.76849	0.506592	0.000152588	
6.7688	0.511475	0.000762939	
6.7688	0.516968	0	
6.76849	0.52124	0	
6.7691	0.526123	-0.000152588	
6.76849	0.527954	0	
6.76544	0.531311	-0.000457764	
6.76453	0.535889	0.000152588	
6.76422	0.540466	0.000305176	
6.76453	0.545654	0.000610352	
6.76483	0.550842	0.000305176	
6.76392	0.552368	0.00137329	
6.76422	0.55542	0.000610352	
6.76392	0.559998	0.000610352	
6.76392	0.565491	0.00106812	
6.76453	0.570068	0.000305176	
6.76422	0.571289	0	
6.76483	0.574951	0.000762939	
6.76361	0.580444	0.000305176	
6.76361	0.584412	0.000762939	
6.76422	0.586853	-0.000152588	
6.76392	0.59021	0.000762939	
6.76453	0.594177	0.000762939	
6.76483	0.59967	0.000457764	
6.76392	0.601807	0.000762939	
6.76392	0.604553	0.000610352	
6.76453	0.609131	0.000305176	
6.76422	0.611877	0.00137329	
6.76086	0.615234	0.000305176	
6.75873	0.620117	0.000915527	
6.75842	0.624084	-0.000152588	
6.75934	0.626221	0	
6.75934	0.628967	0.000305176	
6.75934	0.63324	0.000152588	
6.75842	0.635681	0.000305176	
6.75964	0.638733	0.000152588	
6.75934	0.643311	-0.000305176	
6.75934	0.644836	0.00152588	
6.75964	0.648804	0.000915527	
6.75964	0.65033	0.000457764	
6.75903	0.653992	-0.000152588	
6.75873	0.657959	0.000762939	
6.75873	0.6604	0.000305176	
6.75934	0.662842	0.000305176	
6.75934	0.664978	-0.000152588	
6.75964	0.668945	0.000152588	
6.75903	0.672302	0	
6.75873	0.675049	0.000457764	
6.75964	0.677795	0.000305176	
6.75934	0.679626	0	
6.75598	0.683289	0.000305176	
6.75446	0.684509	0.00183105	
6.75354	0.687866	0.000305176	
6.75476	0.690002	0.000305176	
6.75415	0.692139	0.000457764	
6.75415	0.694885	0.000610352	
6.75446	0.697632	0.000152588	
6.75476	0.699768	0.000457764	
6.75446	0.701904	0.000305176	
6.75385	0.704651	0.000915527	
6.75354	0.707397	0.000305176	
6.75446	0.709229	0.000915527	
6.75385	0.712891	0.000762939	
6.75446	0.713806	0.000762939	
6.75446	0.717163	0.000915527	
6.75385	0.718689	0.000610352	
6.75385	0.71991	0.000152588	
6.75415	0.723267	0.00106812	
6.75415	0.724487	0.000457764	
6.75476	0.727539	0.000610352	
6.75415	0.727844	-0.000457764	
6.75354	0.72876	-0.000152588	
6.75079	0.732727	0	
6.74988	0.732727	0.000152588	
6.74957	0.734253	0.000305176	
6.74896	0.737305	0	
6.74957	0.73761	-0.000152588	
6.74896	0.73822	0.000915527	
6.74896	0.742493	0.000762939	
6.74927	0.743103	0.000305176	
6.74866	0.743713	0.000152588	
6.74988	0.74707	0.00106812	
6.74927	0.747986	0.000152588	
6.74957	0.748901	0.000457764	
6.74927	0.751953	0	
6.74957	0.752869	0.000305176	
6.74957	0.753174	-0.000305176	
6.74927	0.754089	0	
6.74896	0.756836	0.000305176	
6.74957	0.758667	0.000457764	
6.74927	0.757751	0.000457764	
6.74988	0.758057	0.00137329	
6.74927	0.762024	0.000915527	
6.74957	0.762939	0.000305176	
6.74713	0.763245	0.000457764	
6.74469	0.762939	0.000762939	
6.74408	0.763245	0.000152588	
6.7453	0.767212	0.000457764	
6.74469	0.767517	0.000152588	
6.74438	0.768433	0.000762939	
6.74408	0.767212	-0.000152588	
6.74438	0.767822	0.000610352	
6.74438	0.768738	0.000457764	
6.74438	0.771179	0.000610352	
6.74469	0.77301	0.00106812	
6.74438	0.773315	0.000457764	
6.745	0.77301	0.000152588	
6.745	0.77301	0.000915527	
6.745	0.773315	0.000457764	
6.74438	0.77301	0.000305176	
6.74469	0.77301	-0.000457764	
6.74438	0.772705	0	
6.74408	0.773315	-0.000152588	
6.745	0.776978	0.000457764	
6.74377	0.777588	0.000152588	
6.74164	0.777893	0.000152588	
6.74011	0.777893	-0.000305176	
6.7392	0.777893	0.000915527	
6.7395	0.778198	0.000762939	
6.7395	0.777893	0.000457764	
6.7392	0.777588	0.000152588	
6.7395	0.777893	0.000610352	
6.73981	0.777588	0	
6.73981	0.777893	0.000152588	
6.7395	0.777588	-0.000457764	
6.7392	0.778198	0.000152588	
6.7392	0.777893	0	
6.73981	0.777893	0.000762939	
6.7395	0.777893	0.000457764	
6.73981	0.777893	0.000305176	
6.7395	0.778503	0.000610352	
6.7392	0.777893	0.00213623	
6.73981	0.777893	0.000762939	
6.7392	0.774536	0.000457764	
6.7392	0.773315	0.000610352	
6.73889	0.773315	0.000457764	
6.7395	0.773621	0.000305176	
6.73676	0.772705	0.000610352	
6.73462	0.773315	-0.000152588	
6.73431	0.773621	0.000610352	
6.73462	0.77301	-0.000152588	
6.7337	0.773621	0.000762939	
6.73401	0.77301	0.000305176	
6.73523	0.770264	0.000457764	
6.73492	0.768433	0.0012207	
6.73462	0.767822	0.000762939	
6.73462	0.768127	0.000152588	
6.73431	0.768127	0.0012207	
6.73492	0.768433	0.000305176	
6.73431	0.768127	0.000305176	
6.73431	0.764465	-0.000305176	
6.73431	0.76355	-0.000152588	
6.73401	0.762939	0	
6.73462	0.763245	0.000762939	
6.73431	0.762024	0.000305176	
6.73462	0.759888	0.000305176	
6.73462	0.758667	-0.000152588	
6.73431	0.758972	0.0012207	
6.73065	0.758667	0.000610352	
6.72943	0.7547	0.000305176	
6.72943	0.752869	-0.000152588	
6.72913	0.753479	0.000762939	
6.72974	0.752563	0.000305176	
6.73035	0.749817	0.000152588	
6.72943	0.748596	-0.000305176	
6.72943	0.748291	0.000305176	
6.72974	0.748596	-0.000152588	
6.72943	0.745544	0.000305176	
6.72974	0.744019	0.000457764	
6.72882	0.744324	0.000305176	
6.72913	0.743408	0.000610352	
6.72943	0.740662	0.00183105	
6.72974	0.739136	0.000762939	
6.72913	0.73822	0	
6.72852	0.735168	0.000457764	
6.72943	0.733643	0.000305176	
6.72974	0.733032	0.000152588	
6.72943	0.730896	0.000762939	
6.72668	0.728455	0.000152588	
6.72516	0.728455	0.000457764	
6.72485	0.725403	-0.000152588	
6.72455	0.724487	0.000762939	
6.72424	0.723572	0.000610352	
6.72516	0.720825	0.00106812	
6.72455	0.719604	0.0012207	
6.72455	0.718994	0.000762939	
6.72455	0.715637	-0.000305176	
6.72485	0.713806	0.00106812	
6.72424	0.710449	0.000305176	
6.72424	0.709229	0.000610352	
6.72455	0.708618	-0.000305176	
6.72424	0.705261	0.000152588	
6.72455	0.704346	-0.000152588	
6.72455	0.701294	0.000762939	
6.72424	0.699463	0	
6.72485	0.698853	0.000305176	
6.72455	0.695801	-0.000457764	
6.72424	0.694885	0.000915527	
6.72394	0.690613	0.000762939	
6.72119	0.689392	0.000305176	
6.71997	0.689392	0	
6.71967	0.686035	0.000762939	
6.71967	0.684509	0.000152588	
6.71997	0.680847	0	
6.71997	0.679626	-0.000305176	
6.71967	0.675964	0	
6.71967	0.674744	-0.000152588	
6.71936	0.671082	0.000610352	
6.71997	0.669556	0.000457764	
6.71997	0.666504	0.000152588	
6.71906	0.664978	0.00106812	
6.71906	0.661926	0.00167847	
6.71875	0.659485	0.000610352	
6.71936	0.656738	0.000305176	
6.71936	0.655212	0.000610352	
6.71967	0.65155	0.000457764	
6.71875	0.650635	0	
6.71967	0.646667	0.000305176	
6.71906	0.645752	0.000305176	
6.71722	0.6427	0.000152588	
6.71539	0.639954	0.000457764	
6.71478	0.636597	0.000457764	
6.71478	0.635071	0.000305176	
6.71509	0.632019	0.000457764	
6.71509	0.627441	0.00106812	
6.71448	0.62561	0.000305176	
6.71509	0.622559	0.000152588	
6.71509	0.620422	0.0012207	
6.71417	0.61676	0.000305176	
6.71478	0.61615	0.000152588	
6.7157	0.612793	0.000305176	
6.71478	0.610352	-0.000457764	
6.71509	0.60791	-0.000152588	
6.71509	0.606689	0.000610352	
6.71509	0.603027	-0.000152588	
6.71478	0.601196	0.000457764	
6.71478	0.597534	-0.000457764	
6.71448	0.593262	0.00106812	
6.71448	0.591125	0.000762939	
6.71173	0.587769	0	
6.7099	0.586548	0.00106812	
6.7099	0.583801	0.000610352	
6.70929	0.581055	0.000305176	
6.71051	0.577393	-0.000152588	
6.71021	0.57373	-0.000305176	
6.7099	0.571289	0.000305176	
6.70959	0.567932	-0.000152588	
6.70959	0.566711	0.000457764	
6.70959	0.563354	0.000305176	
6.7099	0.561523	0.000152588	
6.7099	0.558167	0.00106812	
6.71051	0.553589	0.000915527	
6.71021	0.551758	0.0012207	
6.7099	0.549011	0.000152588	
6.71021	0.547791	0.000915527	
6.71021	0.543518	0.000152588	
6.7099	0.53894	0.000152588	
6.70929	0.536804	0.000610352	
6.70624	0.533752	0.000305176	
6.70532	0.531921	-0.000152588	
6.70502	0.52887	0.000915527	
6.70532	0.523682	0	
6.70471	0.522766	0.000457764	
6.70502	0.519714	0.000457764	
6.70502	0.517578	0.000915527	
6.70441	0.514526	0.000610352	
6.70471	0.509644	0	
6.70502	0.507507	0.00137329	
6.70502	0.50415	0.000457764	
6.70471	0.502319	0.000305176	
6.70471	0.499268	0.000152588	
6.70502	0.494995	-0.000457764	
6.70471	0.492859	-0.000152588	
6.70532	0.490112	0.000610352	
6.70502	0.488281	-0.000152588	
6.70471	0.484314	0.000457764	
6.70441	0.480957	-0.000305176	
6.70258	0.4776	0.00152588	
6.70044	0.474243	0.000610352	
6.70013	0.470581	0.000305176	
6.70044	0.46936	0.000762939	
6.70013	0.465088	0.000457764	
6.70013	0.464172	0.000305176	
6.70013	0.460205	0	
6.69983	0.455933	0	
6.70013	0.453796	0.000152588	
6.69983	0.45105	-0.000152588	
6.70044	0.446167	0.000610352	
6.70044	0.444031	0.000762939	
6.69983	0.440979	-0.000152588	
6.70013	0.439758	0.00137329	
6.70044	0.435486	0.000762939	
6.70044	0.430908	0.000915527	
6.70013	0.429077	0.000457764	
6.70044	0.426025	0.000305176	
6.70013	0.422058	0.000305176	
6.69647	0.419617	0.000305176	
6.69495	0.416565	0.000152588	
6.69525	0.415344	0.000305176	
6.69525	0.410461	-0.000152588	
6.69556	0.406494	0.000915527	
6.69525	0.404968	0.000152588	
6.69464	0.401611	0.000610352	
6.69495	0.396423	0.000457764	
6.69464	0.394287	0.00106812	
6.69556	0.392456	0.000610352	
6.69464	0.390015	0.000152588	
6.69525	0.386963	0.00106812	
6.69525	0.38208	0.000457764	
6.69586	0.380554	0	
6.69556	0.376587	0.000762939	
6.69434	0.37262	-0.000457764	
6.69525	0.370178	-0.000457764	
6.69495	0.367432	0.000152588	
6.6925	0.365601	0.000152588	
6.69067	0.361633	0.000305176	
6.69006	0.357361	-0.000305176	
6.69006	0.35614	0.000915527	
6.68976	0.352173	0.000457764	
6.69037	0.351257	-0.000152588	
6.69037	0.34729	0.000915527	
6.69006	0.342712	0.000457764	
6.68976	0.341797	0.000610352	
6.69037	0.33783	0	
6.68976	0.333557	-0.000152588	
6.69037	0.332031	0.000305176	
6.69006	0.328064	-0.000152588	
6.69006	0.326843	0.000762939	
6.68945	0.323486	0.000457764	
6.68945	0.317993	-0.000152588	
6.68976	0.316467	0.0012207	
6.68976	0.312805	0.00106812	
6.68732	0.31189	0.00106812	
6.68518	0.309143	0.000305176	
6.68518	0.303955	0.000305176	
6.68579	0.302734	0.000457764	
6.68518	0.298462	0	
6.68549	0.296631	0.000457764	
6.68427	0.292969	0.000305176	
6.68488	0.289307	0	
6.68549	0.286865	0.000457764	
6.68488	0.283203	0.000305176	
6.68518	0.282288	0.000610352	
6.68549	0.279541	0.000610352	
6.68518	0.274963	0.0012207	
6.68518	0.272217	0.000762939	
6.68518	0.26886	0.000457764	
6.68457	0.267639	0.0012207	
6.68488	0.264282	0.000610352	
6.68518	0.26001	0.000152588	
6.68243	0.257874	0.000915527	
6.6803	0.254211	-0.000305176	
6.68091	0.25238	-0.000305176	
6.6806	0.249634	0.000305176	
6.67999	0.248413	0.000305176	
6.6803	0.244751	0	
6.6806	0.240479	-0.000152588	
6.6806	0.238342	0.000915527	
6.67999	0.235291	0.000915527	
6.6803	0.233154	-0.000152588	
6.6806	0.230713	0.000457764	
6.67969	0.228271	0.000610352	
6.6806	0.225525	0.000152588	
6.6803	0.220642	0.000457764	
6.67999	0.218201	-0.000457764	
6.67999	0.214539	0.000305176	
6.6803	0.213013	-0.000305176	
6.67725	0.210571	0.000762939	
6.67572	0.208435	0.000457764	
6.67603	0.205688	-0.000152588	
6.67603	0.203552	0.000762939	
6.67572	0.200806	0.00106812	
6.67511	0.196228	0.00106812	
6.67572	0.193787	0.000305176	
6.67542	0.19165	0.000457764	
6.67542	0.188599	0.000457764	
6.67572	0.186157	0.000152588	
6.67511	0.184021	0.000915527	
6.6748	0.180969	0.000305176	
6.67511	0.179138	0	
6.67511	0.176392	0.00106812	
6.67572	0.174255	0.000305176	
6.67511	0.171509	0.000457764	
6.67542	0.169983	0.000457764	
6.67236	0.166016	0.0012207	
6.67084	0.16449	0.000762939	
6.67023	0.160828	-0.000152588	
6.67023	0.159912	0.00137329	
6.67023	0.155945	0.000457764	
6.67023	0.155029	0.000305176	
6.67023	0.151062	0.000610352	
6.66962	0.150146	-0.000610352	
6.67114	0.147095	-0.000457764	
6.67053	0.145264	0.000610352	
6.67053	0.142212	0.000305176	
6.67053	0.139771	0.000305176	
6.67053	0.136719	0	
6.67053	0.135498	0.00106812	
6.67023	0.132446	0.000610352	
6.67084	0.130005	0	
6.66992	0.127258	0.000305176	
6.66748	0.126038	0.000152588	
6.66565	0.122375	0.000152588	
6.66534	0.12146	-0.000152588	
6.66534	0.118103	-0.000610352	
6.66534	0.115662	0	
6.66504	0.112	-0.000305176	
6.66565	0.110168	0.000305176	
6.66534	0.106812	0.000305176	
6.66565	0.105591	-0.000152588	
6.66504	0.102844	0.000762939	
6.66443	0.101318	0.0012207	
6.66504	0.0976563	0.0012207	
6.66595	0.0964355	0.000152588	
6.66565	0.0961304	0.000305176	
6.66534	0.0930786	0.000457764	
6.66504	0.0906372	0.000152588	
6.6626	0.088501	0.000457764	
6.66077	0.0866699	0.000152588	
6.66016	0.0827026	-0.000152588	
6.66077	0.0805664	0.00106812	
6.66016	0.0793457	0	
6.66046	0.0775146	0.000457764	
6.65985	0.0769043	0.000762939	
6.66016	0.0744629	0.00137329	
6.66046	0.0720215	0.000152588	
6.66016	0.0689697	0.000457764	
6.66016	0.0674438	0.00106812	
6.66016	0.0643921	0.000305176	
6.65985	0.062561	0.000152588	
6.66046	0.0619507	0.000915527	
6.65955	0.0588989	-0.000610352	
6.66016	0.057373	-0.000457764	
6.6568	0.0540161	0.000152588	
6.65619	0.0527954	0.000305176	
6.65558	0.0524902	0.000152588	
6.65558	0.0494385	-0.000305176	
6.65527	0.0473022	0.000915527	
6.65527	0.0448608	0.000457764	
6.65527	0.0430298	0.000152588	
6.65558	0.0424194	0.000610352	
6.65588	0.0396729	0.000305176	
6.65527	0.0369263	0.000152588	
6.65588	0.0344849	-0.000152588	
6.65466	0.0326538	-0.000152588	
6.65527	0.0323486	0.000152588	
6.65466	0.0299072	-0.000152588	
6.65588	0.0283813	0.000915527	
6.65527	0.0283813	0.000152588	
6.65253	0.0253296	-0.000152588	
6.6507	0.022583	0.000915527	
6.651	0.0198364	0.00137329	
6.64978	0.0186157	0.000762939	
6.65009	0.0186157	0.000762939	
6.6507	0.0146484	0.000305176	
6.65039	0.0140381	0.000610352	
6.65039	0.0131226	0.000152588	
6.65039	0.00976563	0.000457764	
6.65039	0.00854492	0.000305176	
6.65039	0.00518799	0.000152588	
6.6507	0.00366211	0.000915527	
6.6507	0.00335693	0.000457764	
6.651	-0.000610352	0.000457764	
6.65039	-0.000915527	0.000762939	
6.64764	-0.0012207	0.00152588	
6.64581	-0.00427246	0.000610352	
6.64581	-0.00579834	0	
6.64551	-0.00671387	0.00137329	
6.64551	-0.00915527	0.000610352	
6.64551	-0.0109863	0.000305176	
6.64551	-0.0109863	0.000915527	
6.64581	-0.0140381	-0.000305176	
6.64581	-0.0152588	-0.000305176	
6.64581	-0.0161743	0.000305176	
6.64581	-0.0195313	0	
6.64551	-0.0204468	0.000457764	
6.6449	-0.020752	-0.000152588	
6.6449	-0.0241089	0.000915527	
6.64429	-0.0253296	0.000457764	
6.64154	-0.0250244	0	
6.64093	-0.0262451	0.000610352	
6.64093	-0.0286865	0.000305176	
6.64093	-0.0311279	0	
6.64032	-0.0308228	0.000152588	
6.64063	-0.0341797	-0.000305176	
6.64093	-0.0354004	0.000152588	
6.64001	-0.0357056	-0.000152588	
6.64124	-0.0378418	0.000610352	
6.64063	-0.039978	0.000305176	
6.64063	-0.0405884	0	
6.64032	-0.0408936	0.00106812	
6.64093	-0.0439453	0.00137329	
6.64124	-0.0448608	0.00106812	
6.64063	-0.0457764	0.000457764	
6.63818	-0.0482178	0.000457764	
6.63605	-0.0500488	0.000152588	
6.63574	-0.050354	0.000305176	
6.63513	-0.0509644	0.000457764	
6.63574	-0.0531006	0.000152588	
6.63544	-0.0552368	0	
6.63574	-0.0552368	0.000762939	
6.63574	-0.0579834	0.000457764	
6.63574	-0.0595093	0.000457764	
6.63574	-0.0598145	0.000610352	
6.63574	-0.0604248	0.00152588	
6.63574	-0.0631714	0.000457764	
6.63574	-0.0646973	0.000152588	
6.63483	-0.0656128	0.00106812	
6.63269	-0.0653076	0.000305176	
6.63116	-0.0692749	0.000152588	
6.63055	-0.0698853	0.000762939	
6.62994	-0.0698853	-0.000305176	
6.63116	-0.0704956	-0.000152588	
6.63025	-0.0732422	0.000305176	
6.63025	-0.0750732	0	
6.62994	-0.0750732	0.000305176	
6.63025	-0.0756836	-0.000305176	
6.63055	-0.0772095	0.000457764	
6.63116	-0.0790405	0.000305176	
6.63055	-0.0793457	0	
6.63055	-0.0802612	0.000915527	
6.63025	-0.083313	0.000305176	
6.62781	-0.0845337	0.000457764	
6.62628	-0.085144	-0.000305176	
6.62598	-0.0845337	-0.000152588	
6.62598	-0.0878906	0	
6.62598	-0.0900269	-0.000305176	
6.62598	-0.0894165	0.000610352	
6.62598	-0.0900269	0.000457764	
6.62598	-0.0897217	-0.000152588	
6.62567	-0.0927734	0.000915527	
6.62537	-0.0946045	0.00137329	
6.62567	-0.0949097	0.00106812	
6.62598	-0.0942993	0.000152588	
6.62628	-0.0964355	0.000915527	
6.62567	-0.0997925	0.000305176	
6.62292	-0.0991821	0.000152588	
6.62079	-0.0997925	0.000762939	
6.62048	-0.0994873	0.000305176	
6.62048	-0.103149	0	
6.62109	-0.103455	0.000762939	
6.62079	-0.104065	0.000610352	
6.62018	-0.10437	0.000305176	
6.62109	-0.107422	0.000610352	
6.6214	-0.108948	0.00106812	
6.6214	-0.109253	0.000762939	
6.62109	-0.108948	0.000152588	
6.62048	-0.109253	0.000915527	
6.62048	-0.112	0.000305176	
6.62109	-0.113831	0.000457764	
6.61804	-0.114136	0.000762939	
6.61652	-0.114441	-0.000305176	
6.61621	-0.115051	-0.000305176	
6.6156	-0.116882	0.000457764	
6.61621	-0.119019	0.000305176	
6.61591	-0.119019	0.000610352	
6.61621	-0.119019	-0.000152588	
6.6156	-0.119019	0.000915527	
6.61621	-0.118713	0.000305176	
6.6156	-0.122681	0.000152588	
6.61621	-0.123901	0.000762939	
6.61652	-0.123596	0.000762939	
6.6153	-0.123901	0.000457764	
6.61377	-0.124207	0.000152588	
6.61163	-0.127563	-0.000305176	
6.61102	-0.128479	-0.000152588	
6.61072	-0.128784	-0.000152588	
6.61041	-0.128784	0.000305176	
6.61072	-0.128784	0.000457764	
6.61102	-0.129395	-0.000152588	
6.61102	-0.132141	0.000610352	
6.61102	-0.133667	0.00106812	
6.61041	-0.133667	0.00106812	
6.61133	-0.133667	0.000305176	
6.61102	-0.133362	0.000915527	
6.61133	-0.133667	0.000305176	
6.60797	-0.136719	0.000305176	
6.60675	-0.137634	0.000915527	
6.60553	-0.13855	0.000457764	
6.60583	-0.13855	-0.000152588	
6.60645	-0.137939	0.000762939	
6.60614	-0.141907	0.000762939	
6.60614	-0.143738	0.000305176	
6.60492	-0.143738	0.000762939	
6.60645	-0.143127	0.000915527	
6.60583	-0.143127	0.000762939	
6.60645	-0.143127	0.000152588	
6.60583	-0.143738	0.0012207	
6.60583	-0.1474	0.000610352	
6.60339	-0.147705	0	
6.60156	-0.148621	0.000915527	
6.60156	-0.148315	-0.000457764	
6.60156	-0.148621	-0.000457764	
6.60156	-0.149231	0.000305176	
6.60095	-0.151367	0	
6.60156	-0.153198	0.000305176	
6.60156	-0.153809	0	
6.60065	-0.153809	0.000762939	
6.60187	-0.153198	0.000457764	
6.60095	-0.153809	0.000152588	
6.60217	-0.15625	0.000457764	
6.60095	-0.158081	0.000305176	
6.59821	-0.158691	0.000762939	
6.59668	-0.158386	0.000152588	
6.59668	-0.158386	-0.000457764	
6.59668	-0.158081	0	
6.59576	-0.158386	-0.000152588	
6.59637	-0.161133	0.000762939	
6.59576	-0.163574	0.000305176	
6.59607	-0.163269	-0.000305176	
6.59576	-0.162659	0.000915527	
6.59576	-0.162964	0.00106812	
6.59607	-0.162354	0.0012207	
6.59576	-0.164185	-0.000152588	
6.59668	-0.166321	0.000457764	
6.59332	-0.167542	0.000305176	
6.59119	-0.168152	0.000152588	
6.59088	-0.167847	0.000305176	
6.59088	-0.167847	0.000457764	
6.59088	-0.168457	0.000152588	
6.5918	-0.170898	0.000762939	
6.5918	-0.173035	0.000152588	
6.5921	-0.173035	0.000610352	
6.5921	-0.172119	0.000457764	
6.5918	-0.172729	0.0012207	
6.5918	-0.173035	0.000610352	
6.59119	-0.173035	0.000152588	
6.58813	-0.176392	0.000915527	
6.58661	-0.177002	0.000457764	
6.5863	-0.178223	0.000457764	
6.5863	-0.177307	0.000457764	
6.58691	-0.177612	-0.000305176	
6.5863	-0.178223	-0.000152588	
6.5863	-0.177917	0.000305176	
6.58691	-0.18158	0.000305176	
6.586	-0.18158	0.000457764	
6.5863	-0.182495	-0.000152588	
6.586	-0.182495	0.000915527	
6.58691	-0.182495	0.000610352	
6.58264	-0.182495	0.000305176	
6.58203	-0.1828	0.000915527	
6.58112	-0.183105	0.000305176	
6.58112	-0.185547	0.000305176	
6.58142	-0.187073	0	
6.58173	-0.187988	-0.000305176	
6.58142	-0.187378	-0.000152588	
6.58173	-0.186768	-0.000152588	
6.58142	-0.187683	0.000305176	
6.58142	-0.187683	0.000152588	
6.58081	-0.19043	0	
6.58173	-0.192261	0.000762939	
6.57898	-0.192261	0.000915527	
6.57776	-0.193176	0.00167847	
6.57684	-0.192261	0.000457764	
6.57684	-0.192566	0.000762939	
6.57745	-0.192871	0.000610352	
6.57684	-0.195923	0.000152588	
6.57593	-0.196838	0.000457764	
6.57654	-0.196838	0.000305176	
6.57623	-0.197449	0	
6.57593	-0.197754	0.000915527	
6.57623	-0.197449	0.000457764	
6.57623	-0.197754	0.000305176	
6.57318	-0.200806	0.000457764	
6.57227	-0.202332	0.000762939	
6.57227	-0.203247	0.000762939	
6.57135	-0.202637	0.000305176	
6.57196	-0.202637	0.0012207	
6.57074	-0.202332	0.000457764	
6.57135	-0.202942	0.000305176	
6.57166	-0.205688	0.000610352	
6.57135	-0.206909	-0.000305176	
6.57166	-0.207214	-0.000305176	
6.57227	-0.206909	0.000152588	
6.57166	-0.206909	0	
6.5683	-0.206604	0.000152588	
6.56647	-0.206909	-0.000305176	
6.56677	-0.209961	0.000762939	
6.56616	-0.211792	0.000305176	
6.56738	-0.212402	0.000152588	
6.56647	-0.212097	0.000610352	
6.56616	-0.211792	0.000305176	
6.56616	-0.212402	0.000762939	
6.56647	-0.212708	-0.000152588	
6.56616	-0.215454	-0.000305176	
6.56738	-0.217285	0	
6.56708	-0.21698	-0.000152588	
6.56403	-0.21698	0.000457764	
6.56219	-0.21759	0.000457764	
6.5625	-0.216675	-0.000152588	
6.56158	-0.217285	0.000915527	
6.56158	-0.220337	0.00137329	
6.56189	-0.221558	0.000915527	
6.56189	-0.221863	0.000305176	
6.56158	-0.221558	0.000610352	
6.56158	-0.221558	0.000305176	
6.56189	-0.221558	0.000152588	
6.56128	-0.221863	0.000915527	
6.55884	-0.224915	0.000305176	
6.55731	-0.22644	0	
6.5564	-0.226746	0.000762939	
6.55701	-0.227356	0.000305176	
6.5567	-0.226746	0.000305176	
6.5564	-0.22644	0.000457764	
6.5567	-0.226746	0.0012207	
6.5567	-0.230103	0.000610352	
6.5564	-0.231628	0.000152588	
6.55609	-0.231323	0.000915527	
6.5564	-0.231628	0.000762939	
6.55396	-0.231934	0.000305176	
6.55182	-0.231934	0.00106812	
6.55212	-0.231628	-0.000457764	
6.55182	-0.234985	-0.000305176	
6.55182	-0.235901	0.000457764	
6.55212	-0.235901	0.000610352	
6.55212	-0.236511	0.000152588	
6.55151	-0.236816	0	
6.55151	-0.236816	0.00106812	
6.55182	-0.239868	0.000305176	
6.55121	-0.241394	0	
6.54877	-0.241699	0.000915527	
6.54633	-0.241089	0.000457764	
6.54694	-0.241089	0.000152588	
6.54724	-0.241699	0	
6.54663	-0.241699	-0.000305176	
6.54694	-0.245056	0.000305176	
6.54663	-0.245972	-0.000457764	
6.54724	-0.246582	0.000457764	
6.54633	-0.246582	0.000305176	
6.54694	-0.245972	-0.000305176	
6.54694	-0.246277	0.00106812	
6.54388	-0.247192	0.00137329	
6.54236	-0.249634	0.00137329	
6.54205	-0.250854	0.000915527	
6.54236	-0.250549	0.000457764	
6.54144	-0.25177	0.000610352	
6.54236	-0.25116	0.000152588	
6.54175	-0.25177	0.000762939	
6.54236	-0.25177	0.000305176	
6.54205	-0.254517	-0.000305176	
6.54236	-0.255432	0.000915527	
6.54144	-0.256348	0.000457764	
6.539	-0.256348	0.000305176	
6.53717	-0.255737	0.000915527	
6.53687	-0.256042	0.000915527	
6.53717	-0.259705	0.000762939	
6.53656	-0.26123	0	
6.53778	-0.260315	0.000762939	
6.53748	-0.260925	0.000762939	
6.53687	-0.26123	0.000610352	
6.53656	-0.261536	0.000305176	
6.53717	-0.261536	-0.000152588	
6.5332	-0.263977	-0.000457764	
6.53259	-0.265503	0.000152588	
6.53229	-0.266418	0	
6.53259	-0.266113	0.000305176	
6.53229	-0.265808	0	
6.53198	-0.265503	0.00106812	
6.53198	-0.265808	0.000305176	
6.53137	-0.26886	0.000305176	
6.53168	-0.270081	0.000610352	
6.53229	-0.270996	0.000610352	
6.53198	-0.270996	0.000457764	
6.52924	-0.270996	0	
6.5274	-0.270081	0	
6.52771	-0.270691	-0.000152588	
6.52832	-0.273743	-0.000305176	
6.5274	-0.275879	0.000457764	
6.5274	-0.275879	0.000152588	
6.52679	-0.276489	-0.000305176	
6.5274	-0.275574	0.000915527	
6.5271	-0.276489	0.0012207	
6.5271	-0.279236	0.00152588	
6.52374	-0.280457	0.000457764	
6.52283	-0.280151	0.000457764	
6.52252	-0.281067	0.000762939	
6.52191	-0.280762	0.000152588	
6.52222	-0.280151	0.00106812	
6.52161	-0.281067	0.000305176	
6.52161	-0.283508	-0.000152588	
6.52191	-0.285339	0.000762939	
6.52283	-0.285339	0.000457764	
6.52252	-0.285645	0.000152588	
6.51855	-0.285645	0.000762939	
6.51764	-0.285339	0.000915527	
6.51733	-0.28595	0.000915527	
6.51672	-0.289307	0.000152588	
6.51733	-0.289612	0.000915527	
6.51703	-0.290527	0.000610352	
6.51642	-0.290833	0.000457764	
6.51672	-0.290222	0.000915527	
6.51672	-0.290527	-0.000305176	
6.51733	-0.293884	-0.000457764	
6.51367	-0.29541	0.000152588	
6.51306	-0.29541	0.000457764	
6.51306	-0.29541	0	
6.51215	-0.295715	0.000152588	
6.51245	-0.29541	0.000610352	
6.51245	-0.29541	0.000610352	
6.51215	-0.298767	0.000305176	
6.51215	-0.300293	0.000610352	
6.51184	-0.300293	0.000610352	
6.51184	-0.300903	0.000610352	
6.5094	-0.300293	-0.000152588	
6.50726	-0.299988	-0.000457764	
6.50757	-0.301208	0	
6.50696	-0.304565	-0.000152588	
6.50757	-0.304871	0.000457764	
6.50726	-0.305176	0	
6.50726	-0.304871	-0.000305176	
6.50757	-0.30426	0.000762939	
6.50726	-0.305176	0.000762939	
6.50452	-0.305786	0.0012207	
6.50269	-0.307922	0.000762939	
6.50269	-0.309448	0.000457764	
6.50208	-0.310669	0.00106812	
6.50116	-0.309753	0	
6.50269	-0.310364	0.000762939	
6.50238	-0.310364	0.000305176	
6.50238	-0.313416	0	
6.50208	-0.314331	0.000915527	
6.50177	-0.315552	0.000305176	
6.49933	-0.315247	0.000305176	
6.49811	-0.314636	0.000457764	
6.4978	-0.314636	0.00106812	
6.49719	-0.315552	0.000610352	
6.4975	-0.317383	0.000152588	
6.49719	-0.319214	0.00137329	
6.49689	-0.319214	0.000610352	
6.49719	-0.319824	0.000305176	
6.4975	-0.319214	0.000915527	
6.49414	-0.320129	-0.000152588	
6.49292	-0.319519	-0.000305176	
6.49231	-0.322571	0	
6.49292	-0.324097	0.000610352	
6.492	-0.325012	0	
6.49139	-0.324707	-0.000305176	
6.4917	-0.324402	0.000915527	
6.49231	-0.324402	0.000762939	
6.49231	-0.324402	0.000152588	
6.492	-0.327759	0.000610352	
6.48926	-0.329285	0.000610352	
6.48743	-0.32959	0.000610352	
6.48773	-0.329285	0.000305176	
6.48743	-0.329895	-0.000152588	
6.48773	-0.3302	0.000152588	
6.48743	-0.329895	-0.000152588	
6.48712	-0.332642	0.000305176	
6.48804	-0.334167	0.000152588	
6.48804	-0.334167	-0.000457764	
6.4856	-0.334473	0.000610352	
6.48315	-0.334473	0.0012207	
6.48254	-0.334778	0.00167847	
6.48285	-0.334778	0.000762939	
6.48254	-0.33844	0	
6.48315	-0.33905	0.000152588	
6.48315	-0.339661	-0.000152588	
6.48224	-0.338745	0.000762939	
6.48254	-0.339661	0.000305176	
6.48285	-0.339355	0	
6.48041	-0.338745	0.000610352	
6.47797	-0.339966	0.000457764	
6.47766	-0.342102	0.000305176	
6.47797	-0.344543	0.000762939	
6.47797	-0.344238	0.00106812	
6.47797	-0.344543	0.000305176	
6.47797	-0.343933	0.000152588	
6.47705	-0.344543	0.0012207	
6.47797	-0.343933	0.000610352	
6.47491	-0.346985	0.000305176	
6.47308	-0.349426	0.00106812	
6.47308	-0.349426	-0.000457764	
6.47339	-0.349426	-0.000457764	
6.47278	-0.349121	0.000305176	
6.47247	-0.349121	0.000305176	
6.47339	-0.349426	0.000457764	
6.47247	-0.352783	-0.000305176	
6.47247	-0.353699	0.000915527	
6.46973	-0.354004	0.000610352	
6.4682	-0.354004	0.000152588	
6.4679	-0.353699	0.000305176	
6.46729	-0.354004	0.000457764	
6.4682	-0.354004	0.000762939	
6.4679	-0.354309	-0.000152588	
6.46881	-0.357056	0	
6.4679	-0.358887	0.000152588	
6.46423	-0.359497	-0.000457764	
6.46362	-0.359192	0.000305176	
6.46301	-0.359192	0.000152588	
6.46271	-0.359192	-0.000152588	
6.46271	-0.359497	0.000762939	
6.46332	-0.362549	0.00106812	
6.4624	-0.36377	0.0012207	
6.46301	-0.364075	0.000610352	
6.46301	-0.364075	0.000610352	
6.45996	-0.36377	0.000762939	
6.45874	-0.36377	0.000152588	
6.45813	-0.364075	0.000457764	
6.45782	-0.36438	0.000152588	
6.45813	-0.367126	-0.000152588	
6.45813	-0.368652	0.00106812	
6.45874	-0.368958	0.000305176	
6.45782	-0.368652	0.000305176	
6.45538	-0.369568	0.000762939	
6.45355	-0.368958	0.000915527	
6.45294	-0.368958	0.000762939	
6.45355	-0.372009	0	
6.45355	-0.373535	0.0012207	
6.45325	-0.374146	0.000762939	
6.45325	-0.37384	0.000305176	
6.45325	-0.37384	0.000762939	
6.45264	-0.374146	-0.000152588	
6.4505	-0.37384	-0.000610352	
6.44836	-0.374146	0.000152588	
6.44806	-0.377197	0.000457764	
6.44897	-0.378723	0	
6.44836	-0.378723	-0.000305176	
6.44867	-0.378723	0.000762939	
6.44836	-0.379028	0.000610352	
6.44775	-0.378723	0.000305176	
6.44592	-0.378723	0.000762939	
6.44379	-0.378723	0.000305176	
6.44348	-0.38208	0.000610352	
6.44318	-0.383301	0	
6.44348	-0.383911	0.000152588	
6.44348	-0.383301	-0.000152588	
6.44348	-0.383606	-0.000305176	
6.44257	-0.38269	0.000610352	
6.44073	-0.383606	0.000305176	
6.4389	-0.383911	-0.000457764	
6.43799	-0.387268	0.000762939	
6.43921	-0.387878	0.00106812	
6.4389	-0.388184	0.00137329	
6.43799	-0.388489	0.000610352	
6.4386	-0.388489	0	
6.4386	-0.388489	0.000457764	
6.43555	-0.388794	0.000610352	
6.43402	-0.388794	0.000915527	
6.43341	-0.391846	0	
6.43341	-0.392456	0.000152588	
6.43311	-0.393066	0.000610352	
6.43372	-0.392761	0.000457764	
6.43402	-0.393677	0.000152588	
6.43097	-0.393372	0.000457764	
6.42883	-0.392761	0.000762939	
6.42883	-0.393372	0.000915527	
6.42853	-0.396423	0.000152588	
6.42883	-0.397949	0.00137329	
6.42853	-0.398254	0.000915527	
6.42853	-0.398254	0	
6.42792	-0.398254	0.000762939	
6.42578	-0.397949	0.000152588	
6.42395	-0.398254	-0.000610352	
6.42303	-0.398254	0.000305176	
6.42334	-0.39856	0.000305176	
6.42395	-0.401917	0.000457764	
6.42365	-0.402527	-0.000457764	
6.42303	-0.403442	0.000762939	
6.41998	-0.403137	0.000762939	
6.41907	-0.402832	0.000152588	
6.41815	-0.402832	0.000915527	
6.41876	-0.403137	0.000305176	
6.41785	-0.403137	0.000610352	
6.41876	-0.406494	0	
6.41815	-0.407715	0	
6.41907	-0.408325	0	
6.41479	-0.408325	-0.000152588	
6.41388	-0.407715	0.00106812	
6.41388	-0.408325	0.000305176	
6.41327	-0.408325	-0.000610352	
6.41388	-0.40802	0.000457764	
6.41388	-0.40863	0.000915527	
6.41327	-0.411682	0.00152588	
6.41083	-0.412903	0.000762939	
6.409	-0.413208	0.000305176	
6.40961	-0.412903	0.000915527	
6.40839	-0.413208	0.000305176	
6.409	-0.412292	0.0012207	
6.40869	-0.412903	0.000152588	
6.40808	-0.412598	-0.000152588	
6.40564	-0.412903	0.000915527	
6.40472	-0.415955	0.000152588	
6.40411	-0.41748	0.000457764	
6.40381	-0.417786	0.000915527	
6.4032	-0.418396	0.000915527	
6.40411	-0.417786	0.000762939	
6.40381	-0.41748	0.000152588	
6.40076	-0.41748	0.0012207	
6.39893	-0.41748	0.000610352	
6.39862	-0.418091	0.000305176	
6.39862	-0.418396	0.00106812	
6.39862	-0.421448	-0.000305176	
6.39893	-0.422668	-0.000610352	
6.39587	-0.422974	0	
6.39435	-0.422974	0.000305176	
6.39404	-0.422363	0.000152588	
6.39374	-0.422363	-0.000305176	
6.39374	-0.423584	0.000915527	
6.39465	-0.422974	0.000457764	
6.39435	-0.422974	0.000152588	
6.39099	-0.423279	0.000610352	
6.38947	-0.426025	0.000152588	
6.38947	-0.426636	0.000457764	
6.38885	-0.428467	0	
6.38885	-0.428162	0.000152588	
6.38916	-0.428162	0	
6.38916	-0.427551	-0.000305176	
6.3858	-0.428162	0.000305176	
6.38519	-0.427551	0.000305176	
6.38458	-0.427856	-0.000305176	
6.38397	-0.427856	0.000610352	
6.38397	-0.427856	0.00106812	
6.38428	-0.428162	0.00137329	
6.38092	-0.431213	0.000915527	
6.3797	-0.432434	0.000457764	
6.37939	-0.432739	0.000762939	
6.37878	-0.432129	0	
6.37909	-0.432739	0.000762939	
6.37939	-0.432739	0.000610352	
6.37878	-0.432739	-0.000152588	
6.37665	-0.432739	0.00106812	
6.37421	-0.433044	0.000152588	
6.37451	-0.433044	0	
6.37482	-0.432434	0.000610352	
6.37543	-0.432434	0.000762939	
6.37451	-0.432129	0.000915527	
6.37115	-0.433044	0	
6.36963	-0.436096	0.000762939	
6.36932	-0.437622	0.000915527	
6.36932	-0.437317	0.000305176	
6.36993	-0.438538	0.000762939	
6.36993	-0.437622	-0.000305176	
6.36658	-0.437317	-0.000305176	
6.36475	-0.437622	0	
6.36444	-0.437622	0.000457764	
6.36414	-0.437622	0.000305176	
6.36444	-0.437622	-0.000152588	
6.36414	-0.437317	0.000915527	
6.36108	-0.437622	0.000457764	
6.36017	-0.437622	0.000762939	
6.35895	-0.438232	0.000762939	
6.35864	-0.437927	0.000152588	
6.35895	-0.437317	0.000915527	
6.35956	-0.437317	0.000305176	
6.35956	-0.437317	0.000152588	
6.35651	-0.437317	-0.000305176	
6.35498	-0.437622	-0.000152588	
6.35468	-0.437012	0.000305176	
6.35498	-0.437317	0	
6.35376	-0.437012	-0.000305176	
6.35437	-0.437927	0.000305176	
6.35132	-0.437622	0.00137329	
6.34979	-0.437317	0.00167847	
6.34918	-0.437317	0.000305176	
6.34979	-0.437927	0.000610352	
6.34979	-0.438232	0.000610352	
6.34918	-0.437927	0	
6.34583	-0.438232	0.000762939	
6.34491	-0.437317	0	
6.3443	-0.437927	-0.000152588	
6.34399	-0.437317	0.00106812	
6.3443	-0.437927	0.000152588	
6.3443	-0.437317	0.000305176	
6.34155	-0.437622	0.000457764	
6.33972	-0.437012	0.00106812	
6.34003	-0.437012	0.000762939	
6.33942	-0.437012	0	
6.3385	-0.437012	0.000610352	
6.33667	-0.434265	0.000762939	
6.33484	-0.43335	0.000457764	
6.33484	-0.432434	0.000915527	
6.33453	-0.433044	-0.000305176	
6.33453	-0.433044	-0.000305176	
6.33484	-0.432739	0.000305176	
6.33209	-0.432434	0.000457764	
6.32965	-0.432434	-0.000152588	
6.32965	-0.432129	-0.000305176	
6.32996	-0.432739	0.000762939	
6.32965	-0.432129	0.000457764	
6.32965	-0.429993	0.000457764	
6.3269	-0.428772	0.000610352	
6.32477	-0.427856	0.000457764	
6.32507	-0.427551	0.000610352	
6.32568	-0.427856	0.000305176	
6.32507	-0.427246	0.000152588	
6.32538	-0.427246	-0.000152588	
6.32233	-0.424805	0	
6.32019	-0.422974	0.000762939	
6.32019	-0.422974	0.000152588	
6.31989	-0.422974	0	
6.32019	-0.422974	0.000762939	
6.31683	-0.422363	0.0012207	
6.315	-0.419006	0.0012207	
6.3147	-0.417786	0.000457764	
6.31561	-0.41748	0.000457764	
6.31561	-0.417786	0.000610352	
6.31592	-0.414734	0	
6.31226	-0.413513	0.00106812	
6.31104	-0.412903	0.000305176	
6.31012	-0.412903	0	
6.31042	-0.412598	0.00106812	
6.30981	-0.410461	0.000152588	
6.31042	-0.40863	0.000305176	
6.30737	-0.407715	0.000610352	
6.30615	-0.404663	0.000610352	
6.30524	-0.403748	0.000762939	
6.30524	-0.403137	0.000152588	
6.30585	-0.402222	0.00106812	
6.3028	-0.399475	0.000915527	
6.30127	-0.39917	0.000305176	
6.30066	-0.397949	0.000762939	
6.30005	-0.394287	-0.000305176	
6.30035	-0.393066	-0.000610352	
6.30005	-0.392456	0.000152588	
6.2973	-0.390015	0.000610352	
6.29639	-0.388794	0.000152588	
6.29517	-0.388489	-0.000152588	
6.29547	-0.384216	0.000915527	
6.29547	-0.383301	0.000457764	
6.29242	-0.383911	0.000305176	
6.2915	-0.380554	0.000457764	
6.2912	-0.379028	0.000762939	
6.2912	-0.375061	0.000457764	
6.29089	-0.374146	0.000305176	
6.28784	-0.370178	0	
6.28601	-0.369568	-0.000152588	
6.28571	-0.368042	-0.000457764	
6.28571	-0.36499	0.000152588	
6.28601	-0.36438	-0.000152588	
6.2854	-0.360107	-0.000152588	
6.28265	-0.359802	0.000762939	
6.28082	-0.35553	0.0012207	
6.28082	-0.353394	0.00137329	
6.28082	-0.350037	0.000915527	
6.28082	-0.349426	0.000152588	
6.27808	-0.346069	0.000457764	
6.27625	-0.344238	0	
6.27533	-0.340881	0.000915527	
6.27655	-0.338745	0.000152588	
6.27563	-0.335999	-0.000457764	
6.27594	-0.334778	0.00106812	
6.27228	-0.330811	0	
6.27197	-0.326538	0.000457764	
6.27075	-0.324402	0.000915527	
6.27106	-0.32074	0.000610352	
6.27045	-0.319824	0.00106812	
6.2677	-0.316162	0	
6.26648	-0.314026	0.00106812	
6.26617	-0.311584	0.000915527	
6.26556	-0.307312	0	
6.26587	-0.303955	0.00106812	
6.26282	-0.301208	0	
6.26129	-0.297546	-0.000457764	
6.26129	-0.2948	0.000152588	
6.26099	-0.291443	0.000305176	
6.26068	-0.28717	0.000152588	
6.25763	-0.285339	0	
6.25641	-0.281982	0.000610352	
6.2558	-0.277405	0.000457764	
6.2561	-0.275574	0.000305176	
6.2558	-0.271606	0.000305176	
6.2561	-0.267639	0.000762939	
6.25305	-0.263062	0.000457764	
6.25153	-0.260925	0	
6.25153	-0.256958	0	
6.25092	-0.252991	0	
6.25183	-0.247498	-0.000152588	
6.24847	-0.245972	0.000305176	
6.24664	-0.242004	0	
6.24664	-0.237732	-0.000152588	
6.24634	-0.232544	0.000762939	
6.24603	-0.228882	0.00137329	
6.24329	-0.227661	0.00152588	
6.24115	-0.222778	0.000457764	
6.24115	-0.218506	0.000152588	
6.24146	-0.213928	0.000457764	
6.24115	-0.20874	0	
6.23871	-0.206909	0.000762939	
6.23657	-0.203247	-0.000152588	
6.23627	-0.198669	-0.000305176	
6.23627	-0.194092	0.000915527	
6.23566	-0.188904	0.000305176	
6.23688	-0.184937	0.000457764	
6.23383	-0.179138	0.000762939	
6.23108	-0.174255	0.000762939	
6.23169	-0.172424	0.000457764	
6.23169	-0.169373	0	
6.23108	-0.163879	0.00106812	
6.22833	-0.159912	0.000762939	
6.22681	-0.154419	0.000152588	
6.22711	-0.149841	0.000915527	
6.2262	-0.145264	0	
6.22559	-0.140076	-0.000457764	
6.22314	-0.135193	0	
6.22223	-0.130615	0.000305176	
6.22101	-0.125427	0.000152588	
6.22192	-0.120239	-0.000152588	
6.22131	-0.115051	0.000610352	
6.21826	-0.110474	0.000762939	
6.21674	-0.106506	0.000305176	
6.21704	-0.104065	0.000457764	
6.21674	-0.101318	0.000305176	
6.21582	-0.0958252	0.000457764	
6.21338	-0.0909424	0	
6.21277	-0.0860596	0.000152588	
6.21124	-0.0802612	-0.000152588	
6.21155	-0.0769043	-0.000305176	
6.21094	-0.0717163	0.000610352	
6.2085	-0.0668335	0.000305176	
6.20728	-0.0616455	0.000152588	
6.20667	-0.0527954	0.000610352	
6.20667	-0.0473022	0.000915527	
6.20605	-0.0421143	0.00137329	
6.20392	-0.0375366	0.000915527	
6.20209	-0.0320435	0	
6.20148	-0.0271606	0.000915527	
6.20148	-0.0219727	0	
6.20178	-0.0170898	0.00106812	
6.19934	-0.012207	0.000305176	
6.1969	-0.00762939	-0.000152588	
6.1969	-0.00213623	0.000610352	
6.19659	0.00244141	0.000305176	
6.19629	0.00671387	0.000305176	
6.19385	0.012207	0.000305176	
6.19263	0.017395	0.000457764	
6.19232	0.0216675	0.00106812	
6.19202	0.0268555	0	
6.19202	0.0314331	0.00106812	
6.18866	0.0366211	0.000457764	
6.18713	0.0442505	0.000152588	
6.18652	0.0515747	0.000762939	
6.18652	0.0561523	0	
6.18591	0.0613403	-0.000457764	
6.18408	0.065918	0	
6.18225	0.071106	0.000915527	
6.18256	0.0759888	0.000152588	
6.18195	0.0799561	-0.000305176	
6.18195	0.0848389	0.000457764	
6.17859	0.0897217	0.000457764	
6.17706	0.0946045	0.000305176	
6.17706	0.0997925	0.000610352	
6.17706	0.108337	0.000610352	
6.17676	0.114136	0.000457764	
6.1734	0.119324	0.000152588	
6.17279	0.124512	0.000305176	
6.17218	0.128479	-0.000305176	
6.17249	0.134583	-0.000152588	
6.17188	0.139771	0.000610352	
6.16974	0.143127	0.000152588	
6.1676	0.149231	0.000152588	
6.1676	0.153198	0.000457764	
6.16699	0.158386	0.00106812	
6.16638	0.166321	0.00106812	
6.16394	0.173035	0.000457764	
6.16272	0.177917	0.000305176	
6.16211	0.183105	0.000915527	
6.16241	0.187988	0	
6.16272	0.192566	0.00106812	
6.15936	0.197449	0.000305176	
6.15814	0.202637	-0.000152588	
6.15692	0.207214	0.000915527	
6.15753	0.212097	0.000152588	
6.15753	0.21759	0.000305176	
6.15479	0.22583	0.000457764	
6.15265	0.232239	0.000762939	
6.15173	0.236511	0.000762939	
6.15204	0.24231	0.000152588	
6.15234	0.246582	0.00137329	
6.1496	0.25116	0.000762939	
6.14838	0.256348	0	
6.14746	0.26123	0.000915527	
6.14777	0.265808	0	
6.14655	0.270691	-0.000762939	
6.14471	0.276794	0.000152588	
6.14319	0.280762	0.000457764	
6.14288	0.286255	0.000152588	
6.14288	0.291443	-0.000305176	
6.14227	0.299072	0.000610352	
6.13983	0.305786	0.000610352	
6.13831	0.309753	0.000305176	
6.138	0.314941	0.000915527	
6.13708	0.320129	0.000457764	
6.13708	0.325012	0.000762939	
6.13556	0.329895	-0.000152588	
6.13342	0.335388	0	
6.13312	0.339966	-0.000152588	
6.13342	0.344543	-0.000152588	
6.13281	0.350037	0.000457764	
6.12946	0.354614	0.000152588	
6.12823	0.359802	0.000152588	
6.12793	0.36438	0.000762939	
6.12793	0.369263	0.00137329	
6.12823	0.37384	0.00137329	
6.12488	0.379639	0.000610352	
6.12305	0.383911	0.000457764	
6.12335	0.388794	0.000762939	
6.12274	0.393982	0.000152588	
6.12274	0.398865	0.000915527	
6.1203	0.403442	0.000152588	
6.11816	0.40802	-0.000457764	
6.11786	0.413513	0.000915527	
6.11755	0.418396	0.000610352	
6.11816	0.423279	0.000152588	
6.11511	0.427551	0.000610352	
6.11389	0.433655	0.000762939	
6.11267	0.437927	0.000915527	
6.11359	0.44281	0	
6.11328	0.447693	0.00106812	
6.11084	0.449524	0.000762939	
6.1084	0.452576	0	
6.10748	0.457153	0.000915527	
6.10809	0.462646	0.000152588	
6.10809	0.467529	-0.000610352	
6.10535	0.472412	0.000305176	
6.10291	0.477295	0.000762939	
6.10291	0.481873	0	
6.1026	0.48645	-0.000305176	
6.10291	0.491638	0.000762939	
6.09985	0.496216	0.000762939	
6.09863	0.498047	0.000305176	
6.09802	0.502014	0.000610352	
6.09772	0.506897	0.000305176	
6.09802	0.511169	0.000610352	
6.09558	0.516357	0.000305176	
6.09406	0.520325	0.000152588	
6.09344	0.526123	-0.000305176	
6.09314	0.527649	0	
6.09344	0.530701	0.000610352	
6.09009	0.536194	-0.000152588	
6.08917	0.541382	0.000152588	
6.08826	0.545654	0.000610352	
6.08887	0.549927	0.000610352	
6.0849	0.552368	0.00137329	
6.08398	0.55542	0.000762939	
6.08337	0.560608	0.000305176	
6.08337	0.565186	0.000305176	
6.08337	0.569458	0	
6.08154	0.57251	0.000762939	
6.0791	0.575256	-0.000152588	
6.0788	0.579834	-0.000152588	
6.07849	0.584717	0.000915527	
6.07819	0.586853	0.000610352	
6.07574	0.590515	0.000305176	
6.07361	0.595093	0.000610352	
6.0733	0.59967	0.000457764	
6.07422	0.601807	0.00106812	
6.07269	0.604248	0	
6.07056	0.608521	0.00106812	
6.06964	0.611267	0.000762939	
6.06842	0.614319	0.000152588	
6.06903	0.618896	0.000762939	
6.06903	0.620728	-0.000152588	
6.06628	0.625	-0.000610352	
6.06415	0.628052	0.000152588	
6.06354	0.630188	0.000610352	
6.06384	0.634155	0.000305176	
6.06354	0.638428	-0.000305176	
6.0614	0.640564	0.000457764	
6.05957	0.643616	0.000762939	
6.05835	0.648193	0.000152588	
6.05835	0.649719	0.000610352	
6.05835	0.653076	0.000610352	
6.05591	0.654907	0.000457764	
6.05377	0.659485	0	
6.05377	0.662842	0.000152588	
6.05438	0.665283	-0.000305176	
6.05103	0.66803	-0.000305176	
6.04919	0.670166	0.000305176	
6.04889	0.672607	0.000152588	
6.04828	0.674744	0.000305176	
6.04858	0.679016	0.00106812	
6.04675	0.682678	0.000762939	
6.04431	0.684509	0.0012207	
6.04401	0.687256	0.000762939	
6.04492	0.689697	0.000305176	
6.04401	0.693054	0.000610352	
6.04065	0.69458	0	
6.03973	0.698547	0.000762939	
6.03882	0.700073	0.000305176	
6.03821	0.702515	-0.000457764	
6.03912	0.704041	0.000915527	
6.03607	0.707092	0.000152588	
6.03424	0.709229	0.000457764	
6.03424	0.709229	0.000457764	
6.03424	0.713196	0.000152588	
6.03394	0.714417	0.000915527	
6.03119	0.717468	-0.000152588	
6.03027	0.719604	0.0012207	
6.02905	0.722046	0.00106812	
6.02966	0.724182	0.000305176	
6.02844	0.724487	0.000915527	
6.026	0.726624	0	
6.02509	0.729065	-0.000305176	
6.02386	0.731506	-0.000152588	
6.02356	0.733337	0.000457764	
6.02081	0.734253	0.000152588	
6.01959	0.736694	-0.000152588	
6.01929	0.738831	0.000305176	
6.01929	0.738831	0.000762939	
6.01898	0.740967	0.000152588	
6.01685	0.743408	0.000915527	
6.01379	0.743408	0.000305176	
6.0144	0.74646	0.000305176	
6.0141	0.748596	0.000152588	
6.0144	0.749512	0.000305176	
6.01196	0.751343	-0.000610352	
6.00952	0.753479	-0.000152588	
6.00861	0.753174	0.000610352	
6.00922	0.753174	0.000305176	
6.00952	0.756531	-0.000152588	
6.00647	0.758057	0.000915527	
6.00494	0.758362	0.000762939	
6.00525	0.758362	0.0012207	
6.00433	0.762024	0.000915527	
6.00433	0.763245	0.000305176	
6.00128	0.762939	0.000610352	
6.00006	0.763245	0.000152588	
5.99945	0.766602	0.00152588	
5.99976	0.767822	0.000152588	
5.99945	0.767822	-0.000152588	
5.9967	0.768738	0.000610352	
5.99457	0.768433	0.000305176	
5.99426	0.767822	0.000457764	
5.99518	0.770874	0.000457764	
5.99182	0.772705	0.000762939	
5.9903	0.772705	0.0012207	
5.98969	0.773926	0	
5.98999	0.773621	0.00106812	
5.98999	0.773315	0.000457764	
5.98663	0.773621	-0.000152588	
5.98541	0.776062	0.000915527	
5.9848	0.777588	0	
5.9848	0.777588	-0.000152588	
5.98511	0.777893	0	
5.98145	0.778198	0.000457764	
5.97961	0.778198	0.000152588	
5.97931	0.777588	-0.000152588	
5.97931	0.778503	0.000457764	
5.97961	0.778198	0.000915527	
5.97687	0.777893	0.000152588	
5.97534	0.777588	0.000762939	
5.97504	0.778503	0.000457764	
5.97473	0.777588	0.000305176	
5.97412	0.778198	0.000152588	
5.97168	0.777588	0.000152588	
5.96985	0.777893	-0.000610352	
5.96985	0.777588	-0.000152588	
5.96954	0.778198	0.000915527	
5.96649	0.778198	0	
5.96558	0.777588	0	
5.96527	0.777588	0.000762939	
5.96405	0.778503	0.000915527	
5.96466	0.778198	0.0012207	
5.96161	0.778198	0.000762939	
5.96008	0.777588	0.000152588	
5.95978	0.777893	0.000610352	
5.95947	0.778198	0.000305176	
5.96008	0.778198	0.00106812	
5.95734	0.778198	0.000152588	
5.95581	0.777893	-0.000457764	
5.9552	0.777893	0.000762939	
5.9549	0.777893	0.000152588	
5.95459	0.777893	0.000305176	
5.95215	0.775146	0.000305176	
5.95062	0.77301	0.00106812	
5.95093	0.773315	0.0012207	
5.9494	0.77301	0.000305176	
5.95032	0.773315	0.000762939	
5.94727	0.772705	0.000610352	
5.94543	0.772705	0	
5.94543	0.770264	0.000915527	
5.94513	0.768433	0.000152588	
5.94452	0.768433	-0.000457764	
5.94177	0.768127	0.000152588	
5.94055	0.768127	0.000762939	
5.94025	0.768127	0	
5.93994	0.765686	0.000152588	
5.93994	0.763245	0.000610352	
5.9375	0.763855	0.000915527	
5.93597	0.763245	0	
5.93475	0.762329	0.000610352	
5.93475	0.760193	0.000762939	
5.93323	0.758667	0.000305176	
5.93079	0.757751	0.000305176	
5.93018	0.757751	0	
5.93018	0.755005	-0.000457764	
5.92987	0.753784	-0.000152588	
5.92804	0.753479	0.000762939	
5.9256	0.752563	0.000152588	
5.92468	0.750122	0.000152588	
5.9256	0.748596	0.000457764	
5.92529	0.748291	0.000762939	
5.92285	0.748291	0.000762939	
5.92102	0.745544	0.000915527	
5.92041	0.743713	0.000152588	
5.92072	0.743103	0.000762939	
5.9198	0.740356	-0.000152588	
5.91797	0.739136	0.00106812	
5.91583	0.73822	0.000305176	
5.91583	0.735474	0	
5.91583	0.734253	0.000457764	
5.91553	0.733337	0.000762939	
5.91278	0.72998	0.000152588	
5.91095	0.729065	0.000305176	
5.91064	0.728455	0.000762939	
5.91125	0.725403	0.00106812	
5.91095	0.723572	0.000610352	
5.90729	0.724182	0.000762939	
5.90637	0.72113	0.000762939	
5.90607	0.719604	0	
5.90515	0.719299	0.00106812	
5.90546	0.716248	0.000152588	
5.90302	0.714111	-0.000457764	
5.90027	0.710144	-0.000152588	
5.90088	0.709534	0.000305176	
5.90027	0.708618	0	
5.90088	0.705566	0	
5.89783	0.704346	0.000762939	
5.8963	0.701294	0.000457764	
5.896	0.698853	0	
5.896	0.698853	0.000915527	
5.89569	0.695496	0.000457764	
5.89325	0.69458	0.000152588	
5.89111	0.690918	0.000457764	
5.8905	0.689087	-0.000152588	
5.89081	0.68573	-0.000152588	
5.8905	0.684509	-0.000152588	
5.88867	0.684814	0.000457764	
5.88684	0.681458	0	
5.88623	0.679626	-0.000305176	
5.88593	0.676575	0.000610352	
5.88531	0.675049	0.000762939	
5.88318	0.671387	0.0012207	
5.88104	0.670166	0.00106812	
5.87982	0.667114	0.000457764	
5.88074	0.664978	0.000457764	
5.88104	0.661621	0	
5.8783	0.65979	0.00106812	
5.87616	0.656433	0.000305176	
5.87616	0.654297	-0.000305176	
5.87646	0.652466	0.000610352	
5.87555	0.649719	0.000457764	
5.87311	0.647278	0.000457764	
5.87189	0.645447	0.000762939	
5.87097	0.641479	0.000610352	
5.87128	0.640869	0.0012207	
5.87067	0.636902	0.000152588	
5.86761	0.634766	0.00106812	
5.8667	0.632019	0.000762939	
5.86639	0.629883	0	
5.86578	0.627136	0.000610352	
5.86548	0.625305	0.000457764	
5.86304	0.623169	-0.000305176	
5.86151	0.621338	-0.000152588	
5.86121	0.617676	0.000610352	
5.86121	0.615845	-0.000152588	
5.8609	0.612183	0	
5.85846	0.608826	0.000762939	
5.85663	0.605774	0.000457764	
5.85571	0.602722	0.000152588	
5.85632	0.600891	0.000762939	
5.85663	0.597839	0.000610352	
5.85358	0.596619	0.000305176	
5.85205	0.592651	0.000457764	
5.85114	0.591431	0	
5.85144	0.588074	-0.000305176	
5.85083	0.583496	-0.000610352	
5.84778	0.58197	0.000915527	
5.84717	0.578308	0	
5.84595	0.576782	0	
5.84625	0.57312	0.000305176	
5.84656	0.571594	0.000915527	
5.84351	0.567932	0.0012207	
5.84259	0.56366	0.000915527	
5.84198	0.562134	0.000152588	
5.84167	0.558472	0.0012207	
5.84198	0.556641	0	
5.84106	0.553284	0.000915527	
5.83832	0.548706	0	
5.83801	0.546875	0.000152588	
5.8374	0.544128	0.000457764	
5.8371	0.541992	0.000457764	
5.83679	0.53894	0	
5.83374	0.534058	0.000457764	
5.83252	0.532837	0.000610352	
5.8313	0.53009	0.0012207	
5.8316	0.527649	0.000305176	
5.83252	0.523682	0.00106812	
5.82855	0.52002	0.000762939	
5.82703	0.517578	0.000152588	
5.82672	0.514221	0.00137329	
5.82672	0.513	0	
5.82642	0.509644	0	
5.82397	0.504456	-0.000152588	
5.82275	0.502625	0.000610352	
5.82123	0.498962	0.000305176	
5.82245	0.49469	0	
5.82184	0.493164	0.000915527	
5.82031	0.490112	0.000457764	
5.81787	0.487976	-0.000152588	
5.81696	0.484924	0.000762939	
5.81757	0.480347	0.000152588	
5.81696	0.478821	0.000610352	
5.81696	0.474548	0.000457764	
5.8139	0.470581	0.000152588	
5.81238	0.46875	-0.000457764	
5.81238	0.464783	-0.000152588	
5.81207	0.461426	0.000610352	
5.81238	0.45929	-0.000152588	
5.80902	0.455933	-0.000152588	
5.8075	0.454102	0.000457764	
5.8075	0.450745	0.000610352	
5.8075	0.446472	0.00106812	
5.80719	0.444336	0.00106812	
5.80414	0.440674	0.000610352	
5.80231	0.436707	0.000457764	
5.8017	0.43396	0.000152588	
5.802	0.431213	0.000762939	
5.80231	0.426636	0.000152588	
5.79926	0.424805	-0.000152588	
5.79834	0.421143	0.000457764	
5.79773	0.419006	0.000610352	
5.79773	0.41626	0.000152588	
5.79681	0.411682	0.000457764	
5.79712	0.410461	0.000305176	
5.79437	0.406799	0.0012207	
5.79254	0.402222	0.000305176	
5.79193	0.400085	0.0012207	
5.79224	0.396423	0.000457764	
5.79193	0.391846	0.000152588	
5.78949	0.389709	0.00137329	
5.78766	0.387268	0.000152588	
5.78705	0.385132	-0.000152588	
5.78796	0.381775	-0.000152588	
5.78705	0.377502	0.000610352	
5.78461	0.375977	0.000457764	
5.78278	0.371704	0	
5.78217	0.367737	0.000915527	
5.78247	0.365906	0.000915527	
5.78247	0.362244	0	
5.78247	0.357666	0.00106812	
5.77972	0.356445	0.000152588	
5.7782	0.352173	0.000457764	
5.77789	0.350647	0.000152588	
5.77759	0.346985	-0.000152588	
5.77698	0.342712	-0.000762939	
5.77423	0.341187	-0.000610352	
5.7724	0.338135	0.000915527	
5.77271	0.332947	0.000152588	
5.77301	0.331421	-0.000152588	
5.7724	0.328369	0.000762939	
5.76996	0.323486	0.000762939	
5.76813	0.32135	0.00137329	
5.76782	0.318604	0.000610352	
5.76813	0.316467	0.000305176	
5.76721	0.313721	0.000610352	
5.76782	0.309143	0.000152588	
5.76385	0.308228	0.0012207	
5.76294	0.30365	0	
5.76263	0.299072	-0.000152588	
5.76294	0.297241	0.000457764	
5.76324	0.293274	0.000610352	
5.76019	0.291748	0.000610352	
5.75806	0.289001	0.000762939	
5.75806	0.285034	0.000915527	
5.75745	0.282288	0.00137329	
5.75775	0.279236	0.000305176	
5.75714	0.274963	0.00106812	
5.75439	0.272827	0.000610352	
5.75348	0.26947	0.000152588	
5.75317	0.267334	0.0012207	
5.75287	0.264587	-0.000152588	
5.75287	0.259094	-0.000305176	
5.74982	0.256958	0.000152588	
5.74829	0.255432	0.000305176	
5.7486	0.252686	0.000152588	
5.74799	0.249329	-0.000152588	
5.74768	0.245361	0.000762939	
5.74799	0.24292	0.000457764	
5.74524	0.239258	-0.000152588	
5.74341	0.237732	0.0012207	
5.7428	0.23468	0	
5.7431	0.230408	0.000610352	
5.7431	0.228577	0.000152588	
5.74005	0.22583	0.000152588	
5.73853	0.223694	-0.000305176	
5.73822	0.220032	-0.000305176	
5.73853	0.216064	0.000762939	
5.73822	0.213623	0.000305176	
5.73761	0.210571	-0.000457764	
5.73547	0.209045	0.000762939	
5.73364	0.205688	0.000610352	
5.73334	0.203552	0.00167847	
5.73273	0.200195	0.000915527	
5.73273	0.196228	0.000762939	
5.72998	0.194092	0.000305176	
5.72815	0.19104	-0.000152588	
5.72784	0.189514	0.000610352	
5.72815	0.185852	0	
5.72845	0.183716	-0.000152588	
5.72754	0.180664	0.000610352	
5.72479	0.176392	0.000610352	
5.72327	0.174561	0.000915527	
5.72327	0.171204	0.000152588	
5.72357	0.169678	0.00106812	
5.72327	0.166321	0.00137329	
5.7196	0.164185	0.000610352	
5.71869	0.162354	0.00106812	
5.71838	0.159607	0.000762939	
5.71808	0.155945	0.000152588	
5.71777	0.152283	0.00137329	
5.71777	0.150452	0.000305176	
5.71503	0.146179	-0.000610352	
5.7132	0.145874	-0.000152588	
5.71411	0.142212	0.000305176	
5.71381	0.140076	0.000152588	
5.71289	0.137024	-0.000457764	
5.71381	0.135193	0.000457764	
5.71045	0.131836	0.000457764	
5.70892	0.130615	0.000152588	
5.70831	0.127869	0.000915527	
5.70892	0.125427	0.000305176	
5.70801	0.122375	0.000152588	
5.70587	0.12146	0	
5.70374	0.118103	0.000305176	
5.70404	0.115967	-0.000610352	
5.70313	0.11261	0.000152588	
5.70343	0.110474	0.000457764	
5.70374	0.107727	0.000457764	
5.70038	0.106201	-0.000152588	
5.69916	0.102844	0.000457764	
5.69824	0.100708	0.000305176	
5.69855	0.0979614	0.0012207	
5.69855	0.0961304	0.00137329	
5.69916	0.0918579	0.000457764	
5.69611	0.0912476	0.000305176	
5.69397	0.088501	0	
5.69305	0.0857544	0.000915527	
5.69366	0.0830078	-0.000305176	
5.69336	0.0817871	-0.000152588	
5.69061	0.0784302	0.000610352	
5.68878	0.0775146	0.000610352	
5.68878	0.0744629	0.000457764	
5.68878	0.0723267	0.000610352	
5.68878	0.0689697	0.000305176	
5.68878	0.0668335	0.00167847	
5.68604	0.0640869	0.000305176	
5.6842	0.0622559	0.00137329	
5.68359	0.0595093	0.000915527	
5.6839	0.0579834	0.000152588	
5.68329	0.0570679	0.00106812	
5.6842	0.0537109	0.000305176	
5.68115	0.0531006	-0.000457764	
5.67932	0.0497437	-0.000152588	
5.67902	0.0479126	0	
5.67902	0.0442505	0.000305176	
5.67902	0.0418091	-0.000152588	
5.67871	0.039978	0.000915527	
5.67596	0.038147	0.000915527	
5.67444	0.0372314	0	
5.67444	0.0344849	0.000915527	
5.67444	0.032959	0.000305176	
5.67413	0.0296021	0.000457764	
5.67413	0.0283813	0.000610352	
5.67139	0.0244141	-0.000152588	
5.66986	0.0234985	-0.000457764	
5.66895	0.0234985	-0.000457764	
5.66895	0.0204468	0.000762939	
5.66956	0.0183105	0.000610352	
5.66864	0.0149536	0.000152588	
5.66589	0.0131226	0.000610352	
5.66528	0.0100708	0.000457764	
5.66406	0.00915527	0.00106812	
5.66376	0.00793457	0.00106812	
5.66406	0.00488281	0.000610352	
5.66193	0.00427246	0.000610352	
5.6601	0	0	
5.65948	-0.000610352	0.00137329	
5.65979	-0.00152588	0.000305176	
5.65887	-0.00396729	0	
5.65857	-0.00549316	0.000457764	
5.65674	-0.00640869	0.000610352	
5.65491	-0.00915527	0.000610352	
5.6543	-0.0106812	0.000305176	
5.6543	-0.0137329	0.000762939	
5.6546	-0.0158691	0.00137329	
5.6546	-0.0167847	0	
5.65155	-0.0186157	0.00106812	
5.64972	-0.0210571	0.000762939	
5.64911	-0.0213623	0.000305176	
5.64941	-0.0247192	0.000915527	
5.64911	-0.0256348	0.000305176	
5.64941	-0.0289917	-0.000305176	
5.64636	-0.0308228	-0.000305176	
5.64545	-0.0311279	0.000152588	
5.64453	-0.0341797	0.000152588	
5.64423	-0.0350952	0.000305176	
5.64423	-0.0350952	0.000610352	
5.64453	-0.0387573	0.000457764	
5.64148	-0.0396729	0.000152588	
5.63995	-0.0408936	0.0012207	
5.63965	-0.043335	0.000152588	
5.63965	-0.045166	0.000457764	
5.64026	-0.0454712	0.000457764	
5.63995	-0.0485229	0.000305176	
5.63599	-0.0497437	-0.000610352	
5.63538	-0.0506592	-0.000305176	
5.63416	-0.0531006	0.000762939	
5.63416	-0.0552368	0.000457764	
5.63446	-0.0561523	-0.000305176	
5.63446	-0.0585938	0.000762939	
5.63141	-0.0604248	0.000610352	
5.63019	-0.06073	0.00137329	
5.62958	-0.0628662	0.00106812	
5.62958	-0.0646973	0.000610352	
5.62988	-0.0650024	0.000457764	
5.62988	-0.0680542	0	
5.62927	-0.0695801	0.00106812	
5.62683	-0.0698853	0.000152588	
5.62561	-0.0708008	-0.000152588	
5.62469	-0.0735474	0.000610352	
5.625	-0.0744629	0.000457764	
5.62408	-0.0750732	0.000152588	
5.62469	-0.0778198	0.000305176	
5.62164	-0.0790405	0.000915527	
5.62042	-0.0793457	0.00106812	
5.62012	-0.0830078	0.000457764	
5.61951	-0.0848389	0.000915527	
5.62012	-0.0842285	0.0012207	
5.61951	-0.0848389	0.000152588	
5.61737	-0.0878906	0.00106812	
5.61523	-0.0894165	0.000152588	
5.61432	-0.090332	-0.000305176	
5.61432	-0.0927734	-0.000305176	
5.61462	-0.0946045	0.000457764	
5.61462	-0.0946045	0.000305176	
5.61157	-0.0952148	-0.000152588	
5.61035	-0.0973511	0.000610352	
5.60944	-0.0997925	0.000915527	
5.61035	-0.100098	0.000152588	
5.61005	-0.0994873	0.000610352	
5.61005	-0.102539	0.000457764	
5.60699	-0.104065	0	
5.60486	-0.10437	0.000457764	
5.60577	-0.108032	0.000152588	
5.60486	-0.108643	-0.000305176	
5.60547	-0.108643	-0.000457764	
5.60516	-0.109558	0.000762939	
5.60425	-0.11261	0.000305176	
5.6015	-0.114136	0	
5.60059	-0.114136	0.000457764	
5.59998	-0.114136	0.000610352	
5.60089	-0.117188	0.00137329	
5.59998	-0.118713	0.000915527	
5.60089	-0.119324	0.000305176	
5.59692	-0.119324	0.000762939	
5.59509	-0.12207	0.000305176	
5.59418	-0.123901	0.000762939	
5.59509	-0.123596	0.000457764	
5.59479	-0.124207	-0.000152588	
5.59509	-0.127258	0.000762939	
5.59204	-0.129089	0.000457764	
5.59082	-0.128174	0.000305176	
5.59021	-0.128479	0.000305176	
5.59021	-0.128784	0.000457764	
5.5899	-0.131836	0.000915527	
5.59021	-0.133362	0.000152588	
5.5896	-0.133972	0.000915527	
5.58716	-0.133972	0.000915527	
5.58563	-0.137939	0.000152588	
5.58472	-0.137939	0.00106812	
5.58502	-0.13855	0.000610352	
5.58533	-0.139465	-0.000152588	
5.58472	-0.141602	-0.000610352	
5.58228	-0.143127	0.000457764	
5.58014	-0.143738	0.000152588	
5.57953	-0.144043	-0.000152588	
5.58044	-0.143738	0.000762939	
5.58014	-0.1474	0.000762939	
5.58044	-0.14801	0.000152588	
5.58014	-0.148315	0.000762939	
5.57739	-0.148621	0.000152588	
5.57587	-0.151367	0.000305176	
5.57526	-0.153503	0.000152588	
5.57617	-0.153198	0	
5.57526	-0.153503	0	
5.57556	-0.153503	-0.000610352	
5.57526	-0.15625	0.000915527	
5.5722	-0.157166	0.000305176	
5.57098	-0.158081	0.000152588	
5.56976	-0.158081	0.000305176	
5.57037	-0.157776	0	
5.57037	-0.161438	0.0012207	
5.57007	-0.163269	0.00152588	
5.56732	-0.162354	0.000457764	
5.5661	-0.162659	0.000610352	
5.56519	-0.163574	0	
5.56519	-0.16571	0.00106812	
5.56519	-0.167847	0.000610352	
5.5658	-0.168152	-0.000305176	
5.56519	-0.167236	0.000457764	
5.56213	-0.167847	0.000457764	
5.56091	-0.171509	0.000457764	
5.5603	-0.172424	0.000152588	
5.56061	-0.172119	0.000915527	
5.56	-0.172729	0.000915527	
5.5603	-0.172729	0.000305176	
5.56061	-0.175781	0.0012207	
5.55725	-0.177612	0.000915527	
5.55573	-0.177612	0.000152588	
5.55542	-0.177612	0.00106812	
5.55542	-0.177917	0.000457764	
5.55481	-0.180664	-0.000610352	
5.55573	-0.18219	-0.000457764	
5.55542	-0.183411	0.000610352	
5.55298	-0.18219	0	
5.55023	-0.18219	-0.000305176	
5.55084	-0.183105	0.000610352	
5.55084	-0.185547	0.000762939	
5.55023	-0.186768	0.000152588	
5.55084	-0.187378	0.000762939	
5.55084	-0.187683	0.000305176	
5.54779	-0.187988	0.000610352	
5.54565	-0.191345	0.000762939	
5.54596	-0.192566	0	
5.54535	-0.192566	-0.000305176	
5.54535	-0.192566	-0.000152588	
5.54474	-0.192261	0.000915527	
5.54291	-0.192566	0.000305176	
5.54138	-0.196533	-0.000152588	
5.54077	-0.196838	0.000610352	
5.54077	-0.198059	0.000762939	
5.54077	-0.197449	0.0012207	
5.54047	-0.196838	0.00106812	
5.54047	-0.200195	0.000457764	
5.54016	-0.202942	0.000762939	
5.53741	-0.202026	0.000152588	
5.5368	-0.202026	0.0012207	
5.53589	-0.202026	0.000457764	
5.53589	-0.202332	-0.000152588	
5.53589	-0.206299	0.000915527	
5.53589	-0.206909	0.000610352	
5.53589	-0.206299	0.000457764	
5.53314	-0.207214	0.000457764	
5.53162	-0.207214	0.000610352	
5.53131	-0.20752	0.00106812	
5.53101	-0.209656	0.000305176	
5.53101	-0.212097	0.000915527	
5.53131	-0.212097	0.000915527	
5.5304	-0.212708	0	
5.52795	-0.212097	0.0012207	
5.52643	-0.212402	0.000457764	
5.52612	-0.214233	-0.000152588	
5.52551	-0.216064	-0.000610352	
5.52643	-0.217285	0.000305176	
5.52582	-0.21698	0.000610352	
5.52521	-0.217285	-0.000152588	
5.52307	-0.216675	0.000610352	
5.52124	-0.220032	0.000610352	
5.52124	-0.222168	0.000305176	
5.52094	-0.221558	0.000762939	
5.52094	-0.221863	0.000305176	
5.52094	-0.222778	0.000610352	
5.52094	-0.221863	0.000610352	
5.51819	-0.222168	0.000152588	
5.51636	-0.224609	-0.000305176	
5.51575	-0.226746	-0.000610352	
5.51636	-0.226746	0.000457764	
5.51666	-0.22644	0.000457764	
5.51666	-0.226746	-0.000152588	
5.51605	-0.227661	0.000305176	
5.51636	-0.230103	0.000152588	
5.51331	-0.231628	0.00183105	
5.51208	-0.231323	0.00106812	
5.51117	-0.231934	0.000457764	
5.51086	-0.231628	0.000457764	
5.51117	-0.232239	0.000152588	
5.51056	-0.23468	0.0012207	
5.51086	-0.236206	0.000762939	
5.50873	-0.236816	0	
5.5069	-0.235901	0.000610352	
5.50598	-0.236206	0.000457764	
5.50629	-0.236511	0.000457764	
5.50629	-0.236511	0.000610352	
5.50598	-0.238037	0.000915527	
5.50629	-0.241394	0.00106812	
5.50629	-0.241699	0	
5.50354	-0.241699	0.00106812	
5.5014	-0.241089	0.000610352	
5.50171	-0.241089	0.000152588	
5.50079	-0.244446	0.00137329	
5.50201	-0.246277	0.000762939	
5.50171	-0.245972	-0.000152588	
5.50079	-0.246277	-0.000152588	
5.50079	-0.246887	0.000457764	
5.49927	-0.246582	0.000610352	
5.49683	-0.246887	-0.000152588	
5.49683	-0.248718	0.000457764	
5.49652	-0.250854	0.000762939	
5.49713	-0.25116	0.000305176	
5.49683	-0.250854	0.000762939	
5.49683	-0.25116	0.000152588	
5.49683	-0.251465	0.000610352	
5.49347	-0.254211	0.000610352	
5.49194	-0.255737	0	
5.49164	-0.256348	0	
5.49164	-0.256042	-0.000152588	
5.49164	-0.256042	0.000457764	
5.49133	-0.256042	0.000305176	
5.49133	-0.257263	-0.000457764	
5.49103	-0.259399	0	
5.48828	-0.26062	0.000457764	
5.48645	-0.261841	0.00106812	
5.48706	-0.26062	0.0012207	
5.48645	-0.261536	0.000610352	
5.48737	-0.26062	0.000305176	
5.48645	-0.263672	0.000305176	
5.48615	-0.265503	0.000915527	
5.48645	-0.266113	0.000152588	
5.48401	-0.266724	-0.000305176	
5.48187	-0.265808	0.000457764	
5.48187	-0.265808	0.000305176	
5.48218	-0.266724	0.000457764	
5.48248	-0.269165	0.000152588	
5.48187	-0.270081	0.000610352	
5.48187	-0.270691	0.00106812	
5.48096	-0.270386	0	
5.47852	-0.270386	0.00167847	
5.47729	-0.270386	0.000915527	
5.47638	-0.271301	0.000152588	
5.47668	-0.274048	0.0012207	
5.47638	-0.275269	0.000915527	
5.47638	-0.275879	-0.000457764	
5.47638	-0.275574	-0.000457764	
5.47699	-0.275269	0.000457764	
5.47363	-0.274658	0.000152588	
5.4718	-0.275574	-0.000305176	
5.4718	-0.279541	0.000610352	
5.4715	-0.280762	0.000762939	
5.4715	-0.281372	0.000152588	
5.4715	-0.280762	0.00106812	
5.47211	-0.279846	0.000457764	
5.47211	-0.280151	0.000457764	
5.4718	-0.281067	0.000305176	
5.46936	-0.284119	0.000305176	
5.46722	-0.285339	-0.000152588	
5.46722	-0.285034	-0.000152588	
5.46722	-0.28595	0.000457764	
5.46661	-0.28595	0.000457764	
5.46722	-0.286255	-0.000305176	
5.46631	-0.285034	0.000457764	
5.46692	-0.288696	0.000457764	
5.46387	-0.290222	0.0012207	
5.46234	-0.290527	0.00137329	
5.46173	-0.290527	0.000610352	
5.46204	-0.290527	0.000152588	
5.46173	-0.290222	0.000305176	
5.46143	-0.290833	0.0012207	
5.46204	-0.293579	0.000457764	
5.46204	-0.2948	-0.000457764	
5.46173	-0.29541	0.000610352	
5.45868	-0.2948	0.000305176	
5.45776	-0.2948	0.000610352	
5.45715	-0.295105	0.000305176	
5.45685	-0.295105	0.000762939	
5.45685	-0.299377	0.0012207	
5.45654	-0.299072	0.000305176	
5.45685	-0.300903	0.000915527	
5.45654	-0.300598	0.000915527	
5.45685	-0.300293	0.000305176	
5.45441	-0.299988	0.00106812	
5.45258	-0.300598	0.000457764	
5.45197	-0.30365	-0.000152588	
5.45166	-0.305481	-0.000610352	
5.45166	-0.305481	0	
5.45197	-0.304871	0.000915527	
5.45166	-0.304565	-0.000457764	
5.45197	-0.304871	0.000915527	
5.45105	-0.305481	0.000610352	
5.44952	-0.308838	0.000152588	
5.44678	-0.310364	0.000915527	
5.44678	-0.309143	0.000457764	
5.44708	-0.309753	0.000457764	
5.44678	-0.310059	0.000610352	
5.44708	-0.310059	0	
5.44708	-0.310059	0.000152588	
5.44678	-0.313721	-0.000152588	
5.44678	-0.314331	0.000457764	
5.44403	-0.314636	0.000152588	
5.4425	-0.314331	-0.000610352	
5.44159	-0.315552	0.000305176	
5.4422	-0.314636	0.000152588	
5.44159	-0.314941	0.00106812	
5.44189	-0.317383	0.00106812	
5.4422	-0.319519	0.000762939	
5.44189	-0.319519	0.000610352	
5.44189	-0.319214	0.000305176	
5.43976	-0.319214	0.000915527	
5.43762	-0.319824	0.000762939	
5.43732	-0.320435	-0.000152588	
5.43732	-0.322266	0.000305176	
5.43701	-0.324097	0.000762939	
5.43762	-0.324707	0.000305176	
5.43701	-0.325012	0	
5.43762	-0.324707	0.000610352	
5.43823	-0.324402	0.0012207	
5.43457	-0.324707	0.000152588	
5.43274	-0.328064	0.00106812	
5.43213	-0.329285	0.00106812	
5.43243	-0.3302	0.000457764	
5.43182	-0.32959	0.000915527	
5.43274	-0.328979	0.000610352	
5.43213	-0.32959	-0.000152588	
5.43213	-0.32959	-0.000610352	
5.43274	-0.32959	0	
5.43243	-0.332642	0.000762939	
5.42908	-0.334778	-0.000305176	
5.42786	-0.334167	0.000305176	
5.42755	-0.334473	0.000610352	
5.42755	-0.335083	0.000305176	
5.42755	-0.334778	0.000915527	
5.42725	-0.335083	0	
5.42755	-0.33844	0.000610352	
5.42755	-0.338745	0.000305176	
5.42755	-0.339355	0.000305176	
5.42786	-0.33905	-0.000305176	
5.42419	-0.339661	-0.000610352	
5.42267	-0.339966	0.000305176	
5.42236	-0.340271	0.000152588	
5.42206	-0.342407	-0.000152588	
5.42175	-0.344543	0.000762939	
5.42236	-0.344238	0.000305176	
5.42206	-0.344238	0.00106812	
5.42297	-0.344543	0.00137329	
5.42206	-0.343933	0.000915527	
5.42236	-0.344849	0.000610352	
5.41962	-0.34668	0.000305176	
5.41748	-0.348511	0.0012207	
5.41779	-0.348816	0.000457764	
5.41748	-0.349121	-0.000152588	
5.41718	-0.348816	0.000152588	
5.41748	-0.349121	0.000152588	
5.41779	-0.348511	0.000305176	
5.41656	-0.353088	0.000152588	
5.41718	-0.353394	0.000915527	
5.41718	-0.354004	0.000915527	
5.41473	-0.354614	0.000152588	
5.41321	-0.353699	0.000915527	
5.41229	-0.353699	0.00106812	
5.4129	-0.354614	0.000457764	
5.41199	-0.357361	0.000915527	
5.41321	-0.358887	0.000915527	
5.41168	-0.359192	-0.000152588	
5.41229	-0.358887	-0.000457764	
5.41321	-0.359192	0.000305176	
5.4129	-0.359192	0.000152588	
5.41229	-0.362244	-0.000152588	
5.40863	-0.363464	0.000762939	
5.40741	-0.364075	0.000457764	
5.40771	-0.36438	0.000305176	
5.40771	-0.364075	0.0012207	
5.40771	-0.364075	0.000305176	
5.40741	-0.36438	0.000610352	
5.40771	-0.367126	0.000762939	
5.40771	-0.368652	-0.000152588	
5.4071	-0.368652	0	
5.4068	-0.368958	-0.000457764	
5.4071	-0.369263	0.000457764	
5.40436	-0.368652	0.000152588	
5.40283	-0.368958	-0.000305176	
5.40253	-0.37262	0.000610352	
5.40283	-0.373535	0.000457764	
5.40222	-0.37384	0.0012207	
5.40283	-0.374146	0.00137329	
5.40253	-0.37323	0.000915527	
5.40253	-0.373535	0.000305176	
5.40253	-0.373535	0.000152588	
5.40283	-0.37384	0.0012207	
5.40222	-0.377502	0.000457764	
5.39886	-0.378113	-0.000152588	
5.39795	-0.379333	0.000762939	
5.39764	-0.378418	0.000610352	
5.39825	-0.379028	0.000457764	
5.39825	-0.378418	0.000457764	
5.39795	-0.378723	0.000762939	
5.39764	-0.38208	0.000762939	
5.39764	-0.383301	0.000152588	
5.39734	-0.382996	0.0012207	
5.39734	-0.383606	0.000610352	
5.39764	-0.384521	0.000152588	
5.39764	-0.383606	0.00106812	
5.39398	-0.383911	0.000762939	
5.39307	-0.386353	-0.000457764	
5.39276	-0.388184	-0.000457764	
5.39276	-0.388794	0	
5.39276	-0.388184	0.000762939	
5.39215	-0.388184	0.000152588	
5.39307	-0.388794	0.000610352	
5.39307	-0.388184	0.000457764	
5.39276	-0.391846	0.000610352	
5.39276	-0.392761	0.00106812	
5.39276	-0.393066	0.000762939	
5.39307	-0.393066	0.000457764	
5.3894	-0.392761	0.000610352	
5.38849	-0.393677	0	
5.38788	-0.393982	0	
5.38788	-0.396118	-0.000457764	
5.38757	-0.397644	0.000457764	
5.38818	-0.398254	-0.000152588	
5.38788	-0.397949	-0.000305176	
5.38757	-0.397949	0.000457764	
5.38849	-0.398254	0	
5.38818	-0.397949	0.00106812	
5.38727	-0.39856	0.00152588	
5.38788	-0.401306	0.000610352	
5.38757	-0.402527	0.000305176	
5.38544	-0.403137	0	
5.38269	-0.403748	0.00137329	
5.38269	-0.403137	0.000457764	
5.383	-0.403748	-0.000152588	
5.38239	-0.403442	0.000915527	
5.383	-0.406799	0.000762939	
5.38269	-0.408325	0.000762939	
5.383	-0.407715	0.000305176	
5.3833	-0.40741	0.000457764	
5.383	-0.40802	0.000762939	
5.383	-0.407715	0.000305176	
5.3833	-0.40741	0.000915527	
5.38239	-0.408325	0.000762939	
5.37994	-0.411072	0.000305176	
5.37842	-0.412598	0.0012207	
5.3775	-0.412903	0.000610352	
5.3775	-0.412292	-0.000305176	
5.37811	-0.412903	-0.000305176	
5.3772	-0.413208	0.000152588	
5.37811	-0.412903	0.000457764	
5.3775	-0.415649	0	
5.37811	-0.417786	0.000152588	
5.37781	-0.41748	0.000457764	
5.3772	-0.418091	0.000152588	
5.37781	-0.417175	0.000915527	
5.37842	-0.417786	0.000305176	
5.37781	-0.418091	0.000457764	
5.37537	-0.418091	0.000457764	
5.37323	-0.421448	0	
5.37292	-0.422668	0.000152588	
5.37323	-0.422974	-0.000610352	
5.37354	-0.422668	0.000305176	
5.37292	-0.422974	0.000152588	
5.37323	-0.423279	-0.000152588	
5.37262	-0.423279	0.000762939	
5.37323	-0.422974	0	
5.37231	-0.42572	0.000762939	
5.37262	-0.427246	0.00152588	
5.37384	-0.428162	0.000305176	
5.37262	-0.426941	0.000305176	
5.37048	-0.428162	0	
5.36865	-0.427551	0.000762939	
5.36774	-0.427246	0.000457764	
5.36835	-0.427551	-0.000305176	
5.36804	-0.430908	0.000610352	
5.36835	-0.432739	0	
5.36804	-0.43335	0.000457764	
5.36804	-0.432434	0.000305176	
5.36835	-0.432129	0.000915527	
5.36804	-0.432739	0.000610352	
5.36835	-0.432434	0.000457764	
5.36835	-0.433044	0.00106812	
5.36835	-0.436401	0.000610352	
5.36865	-0.437622	0.000152588	
5.3656	-0.437317	0.00137329	
5.36377	-0.437317	0.000762939	
5.36316	-0.437927	-0.000152588	
5.36285	-0.437622	-0.000457764	
5.36377	-0.437927	0.000305176	
5.36346	-0.437622	0.000305176	
5.36316	-0.440979	0	
5.36346	-0.44281	0.000762939	
5.36285	-0.442505	0.000305176	
5.36285	-0.442505	0.000152588	
5.36285	-0.442505	0.0012207	
5.36316	-0.44281	0.000152588	
5.36346	-0.44281	0.000305176	
5.36316	-0.442505	0.000762939	
5.36377	-0.44281	0	
5.36072	-0.445862	0.000305176	
5.35858	-0.447083	-0.000457764	
5.35858	-0.447693	0.000610352	
5.35858	-0.446777	0.000305176	
5.35858	-0.447693	-0.000152588	
5.35797	-0.446777	0.000915527	
5.35828	-0.447083	0.000152588	
5.35828	-0.447693	0.00106812	
5.35889	-0.447083	0.00137329	
5.35858	-0.450134	0.000457764	
5.35889	-0.451965	0.000305176	
5.35889	-0.451965	-0.000305176	
5.35828	-0.452271	0.00152588	
5.35797	-0.452271	0.000610352	
5.35553	-0.453186	-0.000305176	
5.3537	-0.452271	0.000457764	
5.35278	-0.452576	0.000762939	
5.3537	-0.452576	0.000915527	
5.3537	-0.455322	0.000457764	
5.35339	-0.457153	0.000915527	
5.354	-0.457153	0.000457764	
5.35339	-0.457458	0.000305176	
5.35339	-0.457458	0.00106812	
5.35309	-0.457153	0.000305176	
5.35339	-0.457458	0.00137329	
5.354	-0.457764	0.000457764	
5.35278	-0.460205	0.000762939	
5.35309	-0.462341	-0.000305176	
5.35339	-0.462036	-0.000762939	
5.35034	-0.462036	0.000305176	
5.34912	-0.462036	0.000305176	
5.34821	-0.462646	0	
5.34851	-0.461731	0.000457764	
5.34851	-0.462036	0.000152588	
5.34851	-0.461731	0.00106812	
5.34851	-0.462952	0.000610352	
5.34821	-0.465698	0.000305176	
5.34882	-0.466614	0.000305176	
5.34851	-0.467224	0.000610352	
5.34882	-0.466919	0.000305176	
5.34882	-0.466309	0.000152588	
5.34851	-0.466614	-0.000762939	
5.34821	-0.467224	0.000610352	
5.3479	-0.467224	0	
5.34515	-0.466309	0.000457764	
5.34393	-0.467224	0	
5.34332	-0.467529	-0.000152588	
5.34302	-0.469971	0.000762939	
5.34363	-0.471497	0.00152588	
5.34332	-0.471191	0.000457764	
5.34332	-0.471802	0.000457764	
5.34363	-0.471497	0.000152588	
5.34363	-0.472107	0.00106812	
5.34363	-0.471497	0.000457764	
5.34363	-0.471191	0.000457764	
5.34332	-0.471191	0	
5.34363	-0.471497	0.000610352	
5.34332	-0.470886	0.000457764	
5.34332	-0.471802	0.000457764	
5.34058	-0.475464	0.000762939	
5.33966	-0.475464	0.000915527	
5.33875	-0.476685	0.000610352	
5.33844	-0.476379	0.000915527	
5.33905	-0.476685	0.000305176	
5.33844	-0.476379	0.0012207	
5.33783	-0.476685	0.000457764	
5.33844	-0.476074	0.000305176	
5.33905	-0.476685	-0.000152588	
5.33844	-0.47699	-0.000305176	
5.33875	-0.476685	0.000152588	
5.33905	-0.47699	0.000457764	
5.33844	-0.476074	-0.000152588	
5.33783	-0.477295	0.000610352	
5.33813	-0.480042	0.000152588	
5.3363	-0.481262	0.00106812	
5.33356	-0.481567	0.0012207	
5.33356	-0.481567	0	
5.33356	-0.480957	0.000152588	
5.33356	-0.481567	0.000610352	
5.33356	-0.481262	0.000305176	
5.33356	-0.481567	0	
5.33386	-0.481873	-0.000610352	
5.33386	-0.481262	0.000610352	
5.33356	-0.481567	-0.000305176	
5.33386	-0.481873	0.000610352	
5.33356	-0.481873	0.000610352	
5.33386	-0.481873	0.000305176	
5.33356	-0.481567	0.000762939	
5.33356	-0.481262	0.0012207	
5.33356	-0.480652	0.000915527	
5.33081	-0.481567	0.000457764	
5.32898	-0.480957	0.000305176	
5.32898	-0.481567	0.0012207	
5.32898	-0.482178	0.000457764	
5.32898	-0.481567	0.000610352	
5.32898	-0.481262	0.000305176	
5.32898	-0.482178	0.000610352	
5.32837	-0.485229	0.000762939	
5.32837	-0.485535	0.000457764	
5.32837	-0.486755	0.000610352	
5.32867	-0.48645	0.000457764	
5.32867	-0.486145	0.000762939	
5.32867	-0.486755	0.00106812	
5.32928	-0.486755	0.000610352	
5.32837	-0.486145	0.00106812	
5.32776	-0.48645	0.000457764	
5.32532	-0.486145	0.000915527	
5.32349	-0.48645	-0.000152588	
5.32349	-0.486755	-0.000305176	
5.32379	-0.486145	0	
5.32379	-0.486145	0.000152588	
5.32349	-0.486145	-0.000305176	
5.3241	-0.48645	0.000610352	
5.3241	-0.483093	-0.000152588	
5.32349	-0.481873	0.00106812	
5.3241	-0.481262	0.000762939	
5.32379	-0.480957	0.000610352	
5.3241	-0.481262	0.000457764	
5.32379	-0.481567	0.000762939	
5.3241	-0.481567	0.000305176	
5.3244	-0.480957	0	
5.3241	-0.480957	-0.000762939	
5.32318	-0.481873	0.000457764	
5.31982	-0.481262	-0.000305176	
5.31921	-0.481262	0.000152588	
5.3186	-0.481567	0	
5.31921	-0.481262	0.000305176	
5.31921	-0.481262	0.000610352	
5.3186	-0.480957	0.00152588	
5.3186	-0.481262	0.000610352	
5.31891	-0.480652	0.000457764	
5.3183	-0.478516	0.000305176	
5.31891	-0.476379	0.00106812	
5.31891	-0.476379	0	
5.3186	-0.476685	0.000762939	
5.3183	-0.476685	0	
5.31891	-0.476379	0.000915527	
5.31921	-0.476379	0.000305176	
5.31921	-0.47699	0.000305176	
5.3186	-0.476074	0.000610352	
5.31555	-0.473633	0.000762939	
5.31372	-0.471802	0.000762939	
5.31464	-0.470581	0.00106812	
5.31403	-0.472107	0.000610352	
5.31311	-0.472107	0.00106812	
5.31372	-0.471802	0.000762939	
5.31403	-0.46875	0.000762939	
5.31372	-0.466919	0	
5.31372	-0.467224	-0.000152588	
5.31342	-0.466919	0.000152588	
5.31403	-0.467529	0.000457764	
5.31311	-0.467224	-0.000610352	
5.31342	-0.463562	0.000457764	
5.31403	-0.462646	-0.000152588	
5.31342	-0.462341	0.0012207	
5.31433	-0.462036	0.000610352	
5.31403	-0.458374	0.000305176	
5.31067	-0.457764	0.000610352	
5.30945	-0.457153	0.000305176	
5.30914	-0.457458	0	
5.30853	-0.456543	-0.000152588	
5.30884	-0.453796	-0.000610352	
5.30975	-0.452271	0.000610352	
5.30853	-0.452271	0.000305176	
5.30884	-0.448914	0.000305176	
5.30914	-0.447693	0.000457764	
5.31006	-0.448303	0.000457764	
5.30853	-0.447083	0.0012207	
5.30914	-0.444336	0.00137329	
5.30853	-0.44342	0.00106812	
5.30945	-0.4422	0	
5.30945	-0.439758	0.000610352	
5.30914	-0.437927	0.000915527	
5.30884	-0.437317	0.000457764	
5.30884	-0.434265	0.000457764	
5.30609	-0.43335	0	
5.30457	-0.432129	0.000762939	
5.30457	-0.428772	0.000610352	
5.30396	-0.427246	0.000457764	
5.30457	-0.424194	0.000457764	
5.30396	-0.422668	0.000610352	
5.30426	-0.422668	0.000610352	
5.30457	-0.419617	0.00106812	
5.30457	-0.418091	0.000152588	
5.30426	-0.413818	0.0012207	
5.30457	-0.413208	0.000305176	
5.30457	-0.410461	0.000762939	
5.30487	-0.408325	0	
5.30457	-0.407715	-0.000305176	
5.30487	-0.404663	0	
5.30426	-0.402832	0.000762939	
5.30396	-0.399475	-0.000457764	
5.30457	-0.397949	0.000457764	
5.30365	-0.395203	-0.000152588	
5.30029	-0.393066	0.00106812	
5.29938	-0.390015	0.000457764	
5.29907	-0.387878	0.000152588	
5.29877	-0.385132	0.000610352	
5.29907	-0.380249	0.000305176	
5.29938	-0.378723	0.000305176	
5.29907	-0.375366	0.000305176	
5.29907	-0.374146	-0.000610352	
5.29968	-0.370483	0.000762939	
5.29938	-0.368958	0	
5.29877	-0.365906	0.000152588	
5.29877	-0.361023	0.000457764	
5.29907	-0.358887	0.000152588	
5.29877	-0.35553	0.0012207	
5.29938	-0.353394	0.00106812	
5.29938	-0.350342	0.00106812	
5.29938	-0.346375	0.000610352	
5.29938	-0.344543	0.000152588	
5.29938	-0.340576	0.000762939	
5.29938	-0.336304	0.000305176	
5.29663	-0.334473	0.000457764	
5.29327	-0.330505	0	
5.29449	-0.326843	0.000457764	
5.29449	-0.324097	0.000305176	
5.29449	-0.32135	0.000457764	
5.29449	-0.316162	0.000457764	
5.29419	-0.312195	0.000457764	
5.29358	-0.310059	0.000457764	
5.2948	-0.305786	0.0012207	
5.29419	-0.301819	0	
5.29419	-0.297546	0.00106812	
5.29449	-0.295715	0.000457764	
5.29388	-0.291748	0.000915527	
5.29449	-0.286865	0.000152588	
5.29388	-0.282288	-0.000762939	
5.29449	-0.2771	0	
5.29419	-0.275574	0.000762939	
5.29419	-0.272217	-0.000305176	
5.29419	-0.267029	0.000762939	
5.29419	-0.262146	-0.000152588	
5.29419	-0.257568	0.000915527	
5.29114	-0.256042	0.000457764	
5.28931	-0.252686	0.000457764	
5.289	-0.248108	0.000457764	
5.28961	-0.243225	0.000610352	
5.28961	-0.238037	0	
5.28931	-0.232849	0.000305176	
5.28931	-0.228271	-0.000762939	
5.289	-0.223083	0.000610352	
5.289	-0.221863	0	
5.28961	-0.218811	0.000457764	
5.28961	-0.213318	0.000152588	
5.289	-0.209045	0	
5.28961	-0.203247	0.000762939	
5.28931	-0.198364	0.00106812	
5.28961	-0.193481	0.000762939	
5.29022	-0.189209	0.000305176	
5.28931	-0.184021	0.000152588	
5.289	-0.178833	0.00106812	
5.28961	-0.174561	0.000305176	
5.28931	-0.169678	0.000457764	
5.289	-0.16449	0	
5.289	-0.159302	0.000457764	
5.289	-0.153809	0.000915527	
5.28595	-0.150452	0.000457764	
5.28412	-0.144958	0.000762939	
5.28473	-0.140076	0.000152588	
5.28412	-0.134888	0.000915527	
5.28381	-0.130005	0.00106812	
5.28442	-0.125732	0.000457764	
5.28442	-0.120239	0.00137329	
5.28412	-0.115051	0.000457764	
5.28442	-0.110168	0.000152588	
5.28442	-0.105286	-0.000152588	
5.28503	-0.100708	-0.000457764	
5.28412	-0.0958252	-0.000152588	
5.28473	-0.0915527	0.000457764	
5.28381	-0.0863647	-0.000152588	
5.28503	-0.0808716	0.000610352	
5.28412	-0.0769043	-0.000152588	
5.28442	-0.0714111	0.00106812	
5.28473	-0.0665283	0.000457764	
5.28473	-0.0613403	0.000457764	
5.28442	-0.0567627	0.000305176	
5.28473	-0.0512695	0.000457764	
5.28442	-0.0436401	0	
5.28503	-0.0366211	0.000305176	
5.28412	-0.0323486	-0.000457764	
5.28473	-0.0271606	0.000915527	
5.28442	-0.022583	0	
5.28442	-0.0170898	0.000305176	
5.28137	-0.0125122	0.000610352	
5.27954	-0.00701904	0.000152588	
5.27954	-0.00244141	0.000915527	
5.27985	0.00183105	0.00137329	
5.27924	0.0100708	0.000915527	
5.27954	0.0158691	0.000305176	
5.27954	0.0216675	-0.000152588	
5.27954	0.0259399	0.000915527	
5.27985	0.0311279	0.000457764	
5.27985	0.0360107	0.000610352	
5.27924	0.0418091	0.000305176	
5.27954	0.0457764	0.000152588	
5.27893	0.0537109	0.000457764	
5.27954	0.06073	0.000152588	
5.27954	0.0665283	0.000610352	
5.27924	0.0714111	0.000457764	
5.27924	0.0765991	0.00106812	
5.27893	0.0799561	0.00137329	
5.27954	0.0845337	0.000305176	
5.27924	0.0924683	0.000915527	
5.27893	0.098877	0.000305176	
5.27924	0.104675	0.000457764	
5.27954	0.108643	0.000305176	
5.27985	0.113525	-0.000457764	
5.27985	0.119019	0.000152588	
5.27954	0.124207	0.000610352	
5.27863	0.129395	-0.000152588	
5.27985	0.137329	0.000305176	
5.27924	0.143433	0.000152588	
5.27954	0.14801	0.000762939	
5.27954	0.153809	0.000915527	
5.27893	0.158691	0.000152588	
5.27954	0.162964	0.000305176	
5.27649	0.168152	0.000457764	
5.27466	0.176392	0	
5.27466	0.181885	0.000457764	
5.27405	0.187988	-0.000610352	
5.27405	0.192871	0.000457764	
5.27405	0.197144	-0.000152588	
5.27466	0.202942	0.000152588	
5.27466	0.20752	0.000152588	
5.27405	0.215149	0.000457764	
5.27435	0.222473	0.000915527	
5.27435	0.226746	0.00106812	
5.27435	0.231628	0.00106812	
5.27466	0.237427	0.000152588	
5.27466	0.242004	0.000305176	
5.27405	0.246277	0.00106812	
5.27496	0.252075	0.000305176	
5.27435	0.259705	0.000457764	
5.27466	0.265198	0.000152588	
5.27435	0.270996	0.000152588	
5.27466	0.276184	0.000762939	
5.27435	0.281372	0.000152588	
5.27466	0.286255	0.000762939	
5.27435	0.290833	0.000610352	
5.27466	0.296021	0.000762939	
5.27435	0.301208	0.000915527	
5.27527	0.305786	0.000152588	
5.27466	0.313416	0.00106812	
5.27405	0.319519	0.000915527	
5.27527	0.325012	0.000610352	
5.27435	0.330505	-0.000152588	
5.27496	0.335083	0	
5.27466	0.339661	0.000152588	
5.27435	0.344849	0.000457764	
5.27405	0.349426	0	
5.27466	0.354614	0.000610352	
5.27496	0.358887	0	
5.27466	0.36438	0.00106812	
5.27435	0.369263	0.000610352	
5.27435	0.374146	0.000762939	
5.27466	0.379333	0.000152588	
5.27496	0.383911	0.000457764	
5.27435	0.388794	0.000152588	
5.27435	0.397034	0.000305176	
5.27466	0.403442	-0.000915527	
5.27435	0.40863	0.000610352	
5.27435	0.412903	0	
5.27405	0.417786	0.000762939	
5.27435	0.422974	0.000457764	
5.27466	0.428162	0.000457764	
5.27435	0.433044	0.000762939	
5.27405	0.438538	0.0012207	
5.27435	0.443115	0.000915527	
5.27466	0.447693	0.000305176	
5.27435	0.451965	0.000152588	
5.27466	0.456848	0.000915527	
5.27466	0.45929	0.000610352	
5.27435	0.462036	0.000305176	
5.27435	0.466614	0.000152588	
5.27435	0.471802	0.000457764	
5.27466	0.476685	0.000152588	
5.27435	0.481873	0.000305176	
5.27435	0.486145	0.000610352	
5.27435	0.491943	0.000305176	
5.27374	0.496521	0.000915527	
5.27405	0.500793	0.0012207	
5.27405	0.505981	0.000305176	
5.27405	0.510864	0.0012207	
5.27435	0.516663	0.000610352	
5.27405	0.52124	0.000762939	
5.27435	0.525818	0	
5.27374	0.527649	-0.000305176	
5.27435	0.531311	0.000152588	
5.27466	0.535583	0.000610352	
5.27466	0.541077	-0.000152588	
5.27466	0.545959	0.000762939	
5.27405	0.549927	-0.000152588	
5.27405	0.554504	0.00106812	
5.27344	0.557556	0.000457764	
5.27466	0.559998	0.000762939	
5.27435	0.564575	-0.000152588	
5.27466	0.569763	0.000457764	
5.27466	0.574646	0.000152588	
5.27466	0.579529	0	
5.27527	0.582275	-0.000915527	
5.27435	0.585327	0.000457764	
5.27405	0.5896	0	
5.27405	0.594788	0.000762939	
5.27435	0.59906	0	
5.27496	0.601501	0.000152588	
5.27466	0.604858	0.00106812	
5.27527	0.609741	0.00167847	
5.27435	0.614624	0.000762939	
5.27466	0.61615	0.000457764	
5.27405	0.619507	0.000152588	
5.27374	0.624084	0.000915527	
5.27496	0.628662	-0.000152588	
5.27466	0.630188	0.000610352	
5.27435	0.633545	0.000305176	
5.27435	0.638733	0.000152588	
5.27466	0.639954	0.000457764	
5.27496	0.643921	0.000457764	
5.27496	0.648804	0.000457764	
5.27435	0.65033	0.000762939	
5.27435	0.653076	0.000762939	
5.27496	0.657654	0.000915527	
5.27466	0.65979	0.000152588	
5.27405	0.663147	0.00137329	
5.27435	0.667725	0.000457764	
5.27435	0.670166	0.000457764	
5.27435	0.673218	0.000152588	
5.27435	0.677185	-0.000305176	
5.27405	0.679932	0	
5.27466	0.682983	0.000457764	
5.27466	0.684204	-0.000305176	
5.27374	0.688477	0.000915527	
5.27405	0.691528	0	
5.27405	0.694275	0.00106812	
5.27435	0.697632	0.000762939	
5.27435	0.699158	0.000457764	
5.27466	0.70282	0.000305176	
5.27466	0.704346	0.000152588	
5.27435	0.707397	0.000610352	
5.27527	0.709534	0.000457764	
5.27435	0.711975	-0.000915527	
5.27435	0.714111	0.000610352	
5.27405	0.717163	-0.000152588	
5.27405	0.722351	0.000610352	
5.27466	0.723877	0.000305176	
5.27435	0.723877	0	
5.27405	0.727539	0.000915527	
5.27466	0.72876	0.00137329	
5.27435	0.732727	0.000610352	
5.27466	0.733643	0.000152588	
5.27405	0.736694	0.000305176	
5.27466	0.73822	0.000610352	
5.27466	0.741577	0	
5.27466	0.743103	0.000610352	
5.27405	0.74707	0.000305176	
5.27435	0.747986	0.000762939	
5.27435	0.748291	0.000305176	
5.27466	0.751343	0.000610352	
5.27527	0.754089	0	
5.27527	0.756836	0.000610352	
5.2771	0.757751	0.000915527	
5.27924	0.758972	0.000915527	
5.27893	0.760803	0	
5.27924	0.762634	0.00106812	
5.27893	0.76416	0.000610352	
5.27924	0.766296	0.000152588	
5.27893	0.767822	0.000152588	
5.27954	0.768433	-0.000305176	
5.27924	0.771484	0	
5.27924	0.772705	0.000610352	
5.27954	0.77301	-0.000305176	
5.27924	0.776367	0.000762939	
5.27924	0.777283	-0.000152588	
5.28046	0.777283	0.000915527	
5.27924	0.778198	0.000610352	
5.27924	0.780945	0.000457764	
5.27924	0.782471	0.000762939	
5.27954	0.782776	0.000305176	
5.27954	0.783386	0.000305176	
5.27954	0.786133	0.000457764	
5.27924	0.787354	-0.000610352	
5.27985	0.787659	0.000610352	
5.27863	0.787354	-0.000152588	
5.27924	0.787659	0.000610352	
5.27954	0.791016	0.000457764	
5.28015	0.791626	0	
5.27954	0.792236	0.000915527	
5.27954	0.792542	0.0012207	
5.27954	0.792847	0.000762939	
5.27954	0.794983	0.000305176	
5.27954	0.797424	0.000152588	
5.28259	0.797424	0.000762939	
5.28412	0.797729	0.000305176	
5.28442	0.797424	0.000610352	
5.28381	0.796814	0.000152588	
5.28473	0.797424	0.000305176	
5.28412	0.797729	0.000457764	
5.28442	0.800781	0.000457764	
5.28442	0.802612	0.000305176	
5.28412	0.802917	0.000610352	
5.28503	0.802307	0.000915527	
5.28442	0.802307	0.0012207	
5.28473	0.802307	0.000305176	
5.28442	0.802612	0.0012207	
5.28412	0.802612	0.00106812	
5.28412	0.802917	0.000762939	
5.28412	0.802612	0.000152588	
5.28412	0.802917	-0.000152588	
5.28412	0.802002	-0.000152588	
5.28412	0.801392	0.000610352	
5.28442	0.802612	-0.000305176	
5.28412	0.802002	0.000762939	
5.28442	0.802002	0	
5.28442	0.802612	0.000915527	
5.28473	0.802307	0.000762939	
5.28748	0.802307	0.000610352	
5.2887	0.802307	0.000457764	
5.289	0.802307	0.000610352	
5.28961	0.802002	0.000457764	
5.28961	0.802612	0.000152588	
5.289	0.802612	-0.000762939	
5.28961	0.802307	0.000915527	
5.289	0.802612	-0.000305176	
5.28961	0.802002	0.000457764	
5.28839	0.802307	0.000152588	
5.289	0.79895	0.000152588	
5.2887	0.797729	0.000457764	
5.28931	0.797729	0.0012207	
5.289	0.797424	0.00137329	
5.28931	0.797729	0.000305176	
5.28961	0.797424	0.000152588	
5.289	0.798035	0.000762939	
5.28992	0.796814	0.000152588	
5.28931	0.797729	0.000610352	
5.29205	0.793762	0.000457764	
5.29419	0.792847	0.000457764	
5.29327	0.792236	0.000457764	
5.29419	0.792236	0.000457764	
5.2948	0.792542	0.000610352	
5.29419	0.791626	0.00106812	
5.29388	0.788879	0.00106812	
5.2948	0.787048	0.00106812	
5.29449	0.787354	0.000152588	
5.29388	0.787659	0.000915527	
5.29419	0.787354	0.000762939	
5.29419	0.784302	0.00106812	
5.29419	0.783081	0.000152588	
5.29388	0.782776	-0.000457764	
5.29419	0.782471	0	
5.29388	0.780029	0.000305176	
5.29449	0.778503	0	
5.29694	0.778503	0.000915527	
5.29877	0.777283	-0.000305176	
5.29907	0.775146	0.0012207	
5.29907	0.773621	0.000305176	
5.29877	0.77301	0.000457764	
5.29968	0.7724	0.000610352	
5.29877	0.770264	0.000152588	
5.29907	0.768433	0.000305176	
5.29907	0.767517	-0.000152588	
5.29907	0.765076	-0.000610352	
5.29938	0.76355	0.000152588	
5.29938	0.763245	0	
5.29907	0.762939	0.000457764	
5.29907	0.759583	0.000610352	
5.29968	0.758667	-0.000152588	
5.30212	0.758362	0.000610352	
5.30365	0.755005	0.0012207	
5.30396	0.753479	0.0012207	
5.30457	0.752869	0.000457764	
5.30457	0.750427	0.000457764	
5.30396	0.748596	0.000762939	
5.30426	0.748596	0	
5.30457	0.74585	0.000762939	
5.30426	0.744019	0	
5.30396	0.740051	-0.000152588	
5.30457	0.738831	0.000152588	
5.30426	0.73822	0.000762939	
5.30426	0.735474	0.000610352	
5.30426	0.734253	0.000915527	
5.30701	0.733337	0.000915527	
5.30853	0.730286	0.000915527	
5.30884	0.728455	0.000457764	
5.30914	0.726013	0.0012207	
5.30823	0.724182	0.000610352	
5.30884	0.723877	0.000762939	
5.30853	0.721436	0	
5.30853	0.718994	-0.000305176	
5.30884	0.716248	-0.000305176	
5.30975	0.714722	0.000457764	
5.30853	0.71167	-0.000305176	
5.30853	0.709534	0.00106812	
5.30914	0.708923	-0.000152588	
5.31189	0.705261	0.000915527	
5.31342	0.704041	0.000762939	
5.31342	0.700378	0.000305176	
5.31403	0.698853	0.000457764	
5.31403	0.696411	0.000305176	
5.31372	0.694885	0.000610352	
5.31372	0.690918	0.000457764	
5.31372	0.690002	-0.000915527	
5.31372	0.68634	0.000457764	
5.31342	0.684204	0.000305176	
5.31403	0.680847	0.000610352	
5.31403	0.679321	0	
5.31677	0.675964	0.000152588	
5.31891	0.675354	0.000305176	
5.3186	0.671692	0.00137329	
5.31952	0.669861	0.000915527	
5.3183	0.666504	-0.000152588	
5.3186	0.665283	0	
5.31921	0.661926	0.000762939	
5.3183	0.65979	0	
5.31891	0.657043	0.000305176	
5.31891	0.654297	0.000305176	
5.3186	0.65155	0.000305176	
5.32196	0.650024	0.000762939	
5.32318	0.646667	0.000457764	
5.3241	0.644836	0.000305176	
5.32379	0.64209	0.000915527	
5.3241	0.640564	0.000305176	
5.3241	0.636597	0.00106812	
5.32318	0.635071	0.000305176	
5.32318	0.632019	0.0012207	
5.3241	0.627441	0.000457764	
5.32349	0.625305	0.000915527	
5.32471	0.622559	0.000305176	
5.32654	0.621033	-0.000457764	
5.32867	0.617676	-0.000152588	
5.32837	0.616455	0.000457764	
5.32867	0.612183	0	
5.32898	0.612183	0.000610352	
5.32837	0.607605	-0.000305176	
5.32898	0.603333	0.000915527	
5.32806	0.601196	0.000610352	
5.32837	0.598145	0.000610352	
5.32898	0.595703	0.000152588	
5.33203	0.592957	0.000610352	
5.33417	0.588074	0.000152588	
5.33356	0.586548	0	
5.33356	0.583496	-0.0012207	
5.33386	0.581665	0.000152588	
5.33356	0.578613	-0.000305176	
5.33356	0.576782	0.000915527	
5.33295	0.57312	0.000305176	
5.33356	0.568542	0.000152588	
5.33325	0.566101	0.000610352	
5.33691	0.563965	0.00106812	
5.33783	0.562439	0.00137329	
5.33844	0.558472	0.000610352	
5.33875	0.55481	0	
5.33905	0.552063	0.000915527	
5.33844	0.549011	0.000152588	
5.33875	0.544434	0.000305176	
5.33844	0.542603	0.000305176	
5.33936	0.538635	0.000152588	
5.3421	0.537109	0.000305176	
5.34302	0.533447	0.000457764	
5.34363	0.52887	0.000610352	
5.34363	0.527954	0.000762939	
5.34363	0.524597	0.00106812	
5.34363	0.523071	0.00106812	
5.34363	0.518799	0	
5.34363	0.514832	0.0012207	
5.34363	0.513	0.000762939	
5.3476	0.509644	0.00106812	
