model_ppg1.acq
0.5 msec/sample
3 channels
RSP, X, RSPEC-R
Volts
PPG, X, PPGED-R
Volts
ECG, Y, RSPEC-R
mV
CH1	CH2	CH13	
249718	249718	249718	
6.13251	0.164795	0.000457764	
6.13281	0.164795	0.000305176	
6.13342	0.161743	0.000457764	
6.13312	0.159912	0.000152588	
6.13281	0.159607	0.000152588	
6.13281	0.159912	0.000762939	
6.1319	0.156555	0.000762939	
6.13342	0.154724	0.000762939	
6.13281	0.155029	0.0012207	
6.13312	0.152283	0.000762939	
6.13037	0.150452	0.000762939	
6.12823	0.149841	0.00106812	
6.12793	0.14801	0.000152588	
6.12823	0.145264	-0.000610352	
6.12823	0.145569	-0.000152588	
6.12793	0.142517	0.000305176	
6.12793	0.140381	-0.000152588	
6.12793	0.140076	0.000305176	
6.12732	0.140686	0.000610352	
6.12732	0.137634	0.000915527	
6.12762	0.135498	0.000915527	
6.12762	0.134888	0.000457764	
6.12732	0.132446	0.000610352	
6.12823	0.13031	0.000305176	
6.12701	0.13031	0.000610352	
6.12732	0.130005	0.000152588	
6.12701	0.128174	-0.000457764	
6.12732	0.125427	0.000457764	
6.12793	0.124817	0.000762939	
6.12793	0.121765	0.000457764	
6.12793	0.12146	0.000305176	
6.12793	0.12085	0.000152588	
6.12793	0.120544	0.000610352	
6.12793	0.117493	0.000762939	
6.12793	0.115967	0.00106812	
6.12823	0.115662	0.000610352	
6.12732	0.115662	-0.000305176	
6.12488	0.11322	0.000457764	
6.12274	0.110779	0.00106812	
6.12274	0.111084	0.000610352	
6.12305	0.107422	0.000305176	
6.12335	0.105896	0.000305176	
6.12335	0.105896	0.000457764	
6.12305	0.105896	0.000305176	
6.12274	0.102539	0.000762939	
6.12335	0.101318	0.000610352	
6.12335	0.101013	0.000762939	
6.12274	0.100708	0.000457764	
6.12244	0.0973511	0.0012207	
6.12335	0.0964355	0.000762939	
6.12305	0.0970459	0.000610352	
6.12274	0.0964355	0.000915527	
6.12305	0.0930786	0.000610352	
6.12305	0.0909424	0	
6.12274	0.0909424	-0.000457764	
6.12335	0.0915527	0.000152588	
6.12366	0.0906372	-0.000305176	
6.12305	0.0881958	0.000152588	
6.12305	0.0863647	0.000762939	
6.12274	0.0863647	0.000762939	
6.12274	0.0860596	0.000610352	
6.12305	0.0830078	0.000457764	
6.12305	0.0820923	0.000457764	
6.12305	0.0808716	0.000152588	
6.12335	0.0817871	0.000305176	
6.12335	0.0805664	-0.000152588	
6.12274	0.0790405	-0.00106812	
6.12274	0.0784302	0	
6.12305	0.0778198	0.000762939	
6.12305	0.0769043	0.000457764	
6.12305	0.0741577	0.000305176	
6.1203	0.0726318	0.000152588	
6.11816	0.0726318	0.000457764	
6.11725	0.0723267	0.00106812	
6.11755	0.0723267	0.0012207	
6.11755	0.0689697	0.000457764	
6.11877	0.0674438	0.000305176	
6.11847	0.0665283	0.000457764	
6.11816	0.0674438	0.000915527	
6.11847	0.0674438	0.000305176	
6.11755	0.0640869	0.000762939	
6.11816	0.062561	0.000152588	
6.11816	0.0628662	0.000610352	
6.11816	0.0628662	0.000305176	
6.11755	0.0619507	0.000305176	
6.11847	0.0595093	0.000915527	
6.11786	0.057373	0.000762939	
6.11786	0.0579834	0.00106812	
6.11816	0.0576782	0.000915527	
6.11816	0.0579834	0.000610352	
6.11755	0.0540161	0.000457764	
6.11786	0.0527954	0.000915527	
6.11725	0.0527954	0.000152588	
6.11847	0.0527954	-0.000457764	
6.11816	0.0524902	-0.000610352	
6.11847	0.0524902	0.000152588	
6.11755	0.0494385	0	
6.11725	0.0476074	0.000457764	
6.11816	0.0479126	0.000457764	
6.11877	0.0482178	0.000457764	
6.11847	0.0476074	0.000610352	
6.11725	0.0445557	0.000305176	
6.11755	0.0436401	0.000457764	
6.11847	0.0424194	0.000305176	
6.11847	0.0436401	0.000610352	
6.11847	0.0427246	-0.000152588	
6.11816	0.0427246	-0.000762939	
6.11786	0.0393677	0	
6.11816	0.0378418	0.000457764	
6.11847	0.0378418	0.000305176	
6.11816	0.038147	0	
6.11816	0.0369263	0	
6.11816	0.038147	0.000762939	
6.11786	0.03479	0.00106812	
6.11786	0.0338745	0.0012207	
6.11847	0.032959	0.000457764	
6.11786	0.0332642	0	
6.11755	0.032959	0.000610352	
6.11816	0.0296021	0.00152588	
6.11786	0.0283813	0	
6.11816	0.0280762	0.000152588	
6.11786	0.027771	0.000305176	
6.11481	0.0280762	0.000152588	
6.11298	0.0280762	0.000152588	
6.11359	0.0247192	0.000305176	
6.11298	0.0234985	0.000762939	
6.11298	0.0231934	0.000457764	
6.11267	0.0231934	0.000915527	
6.11237	0.0231934	0.000915527	
6.11328	0.0228882	0.000762939	
6.11267	0.0201416	0.000915527	
6.11298	0.0189209	0.000762939	
6.11328	0.0189209	0.000762939	
6.11328	0.0189209	-0.000152588	
6.11328	0.0180054	-0.000457764	
6.11298	0.0183105	0.000152588	
6.11328	0.0177002	-0.000457764	
6.11328	0.0149536	0.000305176	
6.11328	0.0140381	0.000610352	
6.11237	0.0128174	0.000610352	
6.11267	0.0134277	0.000457764	
6.11328	0.0143433	0.000457764	
6.11298	0.0131226	0	
6.11389	0.00976563	0.000152588	
6.11237	0.00915527	0.000610352	
6.11298	0.00854492	0.000305176	
6.11267	0.0088501	-0.000610352	
6.11359	0.00854492	0.000152588	
6.11359	0.00823975	0.000915527	
6.11359	0.00518799	0.000305176	
6.11328	0.00305176	0	
6.11298	0.00335693	0.000305176	
6.11328	0.00366211	0.000457764	
6.11359	0.00366211	0.00106812	
6.11298	0.00274658	0.00152588	
6.11359	0.00305176	0.000305176	
6.11328	0.000305176	0.000305176	
6.11328	-0.000610352	0.000915527	
6.11206	-0.00152588	0.00137329	
6.11359	-0.0012207	0.000305176	
6.11328	-0.00152588	0.000152588	
6.11267	-0.00183105	0.000152588	
6.11267	-0.00396729	0.000610352	
6.11267	-0.00640869	0.000152588	
6.11298	-0.00640869	0.000305176	
6.11328	-0.00549316	0.000762939	
6.11328	-0.00610352	0.000762939	
6.11267	-0.00610352	0.000762939	
6.11328	-0.00610352	0.0012207	
6.11298	-0.00946045	0.000762939	
6.11267	-0.0100708	0.000762939	
6.11298	-0.0112915	0.000915527	
6.11328	-0.0106812	0.000457764	
6.11298	-0.0109863	-0.000305176	
6.11328	-0.0106812	-0.000152588	
6.11298	-0.0137329	0.000457764	
6.11359	-0.0152588	-0.000152588	
6.11359	-0.0161743	0.000152588	
6.11328	-0.0158691	0.000762939	
6.11267	-0.015564	0.000457764	
6.11298	-0.0161743	0.000762939	
6.11328	-0.015564	0.000610352	
6.11237	-0.0189209	0.000305176	
6.11359	-0.0204468	0.000152588	
6.11298	-0.0204468	0.000457764	
6.11328	-0.0213623	0	
6.11328	-0.0213623	-0.000457764	
6.11359	-0.0216675	0.000152588	
6.11298	-0.0231934	0.000305176	
6.11298	-0.0256348	0.000152588	
6.11298	-0.0256348	0.000305176	
6.11328	-0.0259399	0	
6.11267	-0.0259399	0.000457764	
6.11328	-0.0253296	0.00106812	
6.11298	-0.0262451	0.0012207	
6.11359	-0.0280762	0.000457764	
6.11328	-0.0299072	0	
6.11328	-0.0305176	0.000610352	
6.11267	-0.0308228	0.000915527	
6.11359	-0.0302124	0.000457764	
6.11328	-0.0308228	0.000305176	
6.11328	-0.0335693	0.000305176	
6.11267	-0.03479	0.000457764	
6.11237	-0.0354004	0.000305176	
6.11359	-0.0354004	0.000457764	
6.11298	-0.0357056	0.000457764	
6.11328	-0.03479	0.000457764	
6.11298	-0.0360107	0.000915527	
6.11359	-0.038147	0.000915527	
6.11267	-0.039978	0.000305176	
6.11328	-0.0411987	0.000305176	
6.11298	-0.0405884	0.000915527	
6.11298	-0.0402832	0.000152588	
6.11237	-0.0402832	-0.000610352	
6.11328	-0.0415039	-0.000305176	
6.11237	-0.0442505	0.000305176	
6.11298	-0.045166	0	
6.11298	-0.0454712	0.000152588	
6.11298	-0.045166	0.000610352	
6.11328	-0.0457764	0.000305176	
6.11328	-0.045166	0.000610352	
6.11328	-0.0482178	0.000610352	
6.11359	-0.050354	0.000305176	
6.11389	-0.0506592	0.000762939	
6.11542	-0.0500488	0.000305176	
6.11755	-0.0500488	0	
6.11755	-0.0500488	-0.000762939	
6.11816	-0.0506592	0	
6.11786	-0.0531006	0.000457764	
6.11755	-0.0552368	0	
6.11755	-0.0558472	0.000305176	
6.11755	-0.055542	0	
6.11877	-0.0552368	0.000457764	
6.11877	-0.055542	0.0012207	
6.11755	-0.0585938	0.00106812	
6.11908	-0.0598145	0.000762939	
6.11816	-0.06073	-0.000152588	
6.11847	-0.0598145	0.000915527	
6.11786	-0.0601196	0.000915527	
6.11816	-0.0592041	0.000305176	
6.11755	-0.0598145	0.000305176	
6.11755	-0.0634766	0.000152588	
6.11816	-0.0650024	0.000457764	
6.11786	-0.0653076	0.000305176	
6.11816	-0.0646973	0.000305176	
6.11786	-0.0650024	0.000610352	
6.11847	-0.0653076	0.000610352	
6.11786	-0.0674438	0.000610352	
6.11877	-0.0698853	0.00137329	
6.11816	-0.0695801	0.000762939	
6.11816	-0.0695801	0.000457764	
6.11755	-0.0701904	0.00106812	
6.11786	-0.0695801	0.000610352	
6.11755	-0.0708008	-0.000152588	
6.11816	-0.072937	-0.000457764	
6.11877	-0.0741577	0.000152588	
6.11755	-0.0744629	-0.000305176	
6.11816	-0.0750732	0.000152588	
6.11816	-0.0744629	0.000915527	
6.11908	-0.0747681	0.000305176	
6.11786	-0.0775146	0.000610352	
6.11786	-0.0793457	0.000457764	
6.11694	-0.0793457	0.000305176	
6.11816	-0.0793457	0.000610352	
6.11816	-0.0793457	0.000457764	
6.11786	-0.0796509	0.000305176	
6.11847	-0.083313	-0.000610352	
6.11847	-0.0848389	0.000457764	
6.11816	-0.0842285	0.000610352	
6.11816	-0.0845337	-0.000152588	
6.11786	-0.0839233	0.000457764	
6.11816	-0.0845337	0.000152588	
6.11816	-0.085144	0.000305176	
6.12061	-0.0875854	0.0012207	
6.12305	-0.0891113	0.0012207	
6.12335	-0.0897217	0.000610352	
6.12305	-0.0891113	0.000152588	
6.12305	-0.0891113	0.000610352	
6.12335	-0.0891113	0.000915527	
6.12396	-0.0933838	0.000610352	
6.12335	-0.093689	0.000152588	
6.12305	-0.0946045	0.000305176	
6.12366	-0.0939941	0.000762939	
6.12335	-0.0946045	0.000152588	
6.12305	-0.0946045	0.000610352	
6.12305	-0.0973511	0.000762939	
6.12305	-0.0991821	0.000457764	
6.12244	-0.098877	0.000762939	
6.12305	-0.098877	0.0012207	
6.12366	-0.0994873	0.000762939	
6.12305	-0.098877	0.000610352	
6.12335	-0.0991821	0.0012207	
6.12244	-0.102234	0.000457764	
6.12305	-0.10376	-0.000152588	
6.12335	-0.104065	-0.000457764	
6.12305	-0.104065	0.000152588	
6.12335	-0.10498	-0.000152588	
6.12305	-0.104675	0.000152588	
6.12274	-0.108032	0.000762939	
6.12305	-0.109253	0.000305176	
6.12213	-0.108643	0.000762939	
6.12396	-0.109253	0.000610352	
6.12335	-0.109253	0.000152588	
6.12366	-0.109558	0.000915527	
6.1261	-0.112	0.000457764	
6.12671	-0.113525	0.000152588	
6.12762	-0.114441	-0.00106812	
6.12793	-0.114441	0.00106812	
6.12793	-0.113525	0.000152588	
6.12823	-0.114136	0.000305176	
6.12732	-0.116882	0.000152588	
6.12823	-0.118408	0.000305176	
6.12823	-0.118713	0.000152588	
6.12854	-0.119324	0.00106812	
6.12793	-0.119019	0.0012207	
6.12823	-0.119629	0.000610352	
6.12793	-0.12207	-0.000457764	
6.12732	-0.123901	0.00183105	
6.12823	-0.123901	0.000762939	
6.12793	-0.123901	0.000305176	
6.12854	-0.123901	0.000152588	
6.12793	-0.123901	0.000152588	
6.12732	-0.126953	0.000457764	
6.12762	-0.128479	0	
6.12823	-0.129395	0.000305176	
6.12793	-0.128784	0.000762939	
6.12762	-0.128174	-0.000152588	
6.12793	-0.128784	0.00183105	
6.13068	-0.129395	0.000610352	
6.13281	-0.131531	0.000457764	
6.13312	-0.133057	0.000762939	
6.13281	-0.133057	0.000915527	
6.13312	-0.133362	0.000457764	
6.13342	-0.133972	-0.000610352	
6.13251	-0.133667	-0.000152588	
6.13312	-0.136414	-0.000152588	
6.13281	-0.137939	-0.000610352	
6.13281	-0.137939	0.0012207	
6.1322	-0.138855	0.000152588	
6.1322	-0.137939	0.000152588	
6.13312	-0.138245	0.000762939	
6.13312	-0.141602	0.000305176	
6.13281	-0.143433	0.000152588	
6.13312	-0.143433	0.000457764	
6.13373	-0.144043	0.000457764	
6.13281	-0.144043	0	
6.13342	-0.144043	-0.000915527	
6.13312	-0.143433	0.00106812	
6.13312	-0.146484	0.000457764	
6.13647	-0.148926	0.000152588	
6.13678	-0.147705	-0.000152588	
6.13708	-0.148621	-0.000152588	
6.138	-0.148621	0.000305176	
6.13678	-0.148621	0.000915527	
6.138	-0.150757	0.0012207	
6.1377	-0.153503	0.000915527	
6.138	-0.153503	-0.000762939	
6.13831	-0.153198	0.00183105	
6.13739	-0.152893	0.000457764	
6.13831	-0.153503	0.000152588	
6.1377	-0.154114	0	
6.13739	-0.155945	0.000762939	
6.1377	-0.157776	0.000305176	
6.138	-0.158691	0.000305176	
6.138	-0.157776	0.000457764	
6.138	-0.157776	0.000915527	
6.138	-0.158691	0.000152588	
6.1377	-0.161133	0.00183105	
6.14075	-0.162659	0.000610352	
6.14258	-0.162964	0.000610352	
6.14227	-0.163269	0.000610352	
6.14258	-0.162964	0.000762939	
6.14227	-0.162354	0.000762939	
6.14319	-0.162659	-0.000152588	
6.14227	-0.166016	-0.000152588	
6.14258	-0.167542	0.000457764	
6.14288	-0.168152	-0.000305176	
6.14319	-0.168152	0.0012207	
6.14319	-0.167847	0.000152588	
6.14258	-0.168152	0.000610352	
6.14258	-0.170898	0.000457764	
6.14288	-0.172119	0.000457764	
6.14319	-0.173035	0.000305176	
6.14319	-0.173035	0.000457764	
6.14319	-0.172424	0.000610352	
6.14563	-0.173035	0.000152588	
6.14655	-0.173035	-0.00137329	
6.14777	-0.176086	0.000915527	
6.14746	-0.177612	0.000152588	
6.14777	-0.177917	0.000152588	
6.14838	-0.177307	0.000305176	
6.14807	-0.177612	0	
6.14777	-0.177917	0.000152588	
6.14777	-0.180359	0.0012207	
6.14746	-0.182495	0.00106812	
6.14746	-0.182495	0.000305176	
6.14807	-0.182495	-0.000457764	
6.14807	-0.183411	0.00152588	
6.14777	-0.182495	0.000762939	
6.14777	-0.181885	0.000610352	
6.14746	-0.185242	0.000152588	
6.15021	-0.187683	0	
6.15234	-0.187378	0.000457764	
6.15295	-0.187988	0.000305176	
6.15326	-0.187073	0	
6.15234	-0.187988	0.000610352	
6.15265	-0.187683	-0.000152588	
6.15204	-0.190125	0.00167847	
6.15295	-0.192261	0.000305176	
6.15234	-0.192261	0.000457764	
6.15326	-0.191956	0.000915527	
6.15234	-0.192261	0.000915527	
6.15234	-0.192871	0.000152588	
6.15265	-0.193787	-0.000152588	
6.15234	-0.195313	-0.000762939	
6.15479	-0.197449	0.000152588	
6.15662	-0.196838	-0.000610352	
6.15662	-0.197449	0.00152588	
6.15723	-0.197754	0.000152588	
6.15814	-0.197449	0.000762939	
6.15784	-0.199585	0.000762939	
6.15784	-0.202332	0.000762939	
6.15753	-0.202637	0.000305176	
6.15814	-0.202332	0.000305176	
6.15753	-0.202332	0.000610352	
6.15723	-0.202637	0	
6.15753	-0.202637	-0.0012207	
6.15784	-0.205078	0.00106812	
6.15723	-0.206909	0.000152588	
6.16058	-0.20752	0.000305176	
6.16241	-0.206909	0.000457764	
6.1618	-0.207214	0	
6.16272	-0.20752	0.000152588	
6.16211	-0.206909	0.00106812	
6.16272	-0.209961	0.00152588	
6.16211	-0.211792	0.000457764	
6.16241	-0.212097	-0.000305176	
6.16241	-0.212097	0.0012207	
6.16302	-0.211487	0.00106812	
6.16241	-0.212708	0.000152588	
6.16272	-0.212708	0	
6.16272	-0.214844	0.000152588	
6.16608	-0.216675	0.000610352	
6.16577	-0.21698	0.000152588	
6.1673	-0.21698	0.000305176	
6.16638	-0.21759	0.000610352	
6.16699	-0.216675	0	
6.16699	-0.220642	0.00167847	
6.1673	-0.221558	0.000457764	
6.16699	-0.221558	0.000457764	
6.1676	-0.221863	0.000457764	
6.1673	-0.221558	0.000457764	
6.1673	-0.221863	0.000305176	
6.16699	-0.221863	0	
6.17035	-0.224609	-0.000152588	
6.17218	-0.22644	0.000305176	
6.17249	-0.226746	-0.000457764	
6.17249	-0.226746	0.0012207	
6.17218	-0.22644	0.000305176	
6.17188	-0.22644	0.000305176	
6.17188	-0.22644	0.000915527	
6.17249	-0.229492	0.000610352	
6.17188	-0.230713	0.000152588	
6.17279	-0.231323	0.000915527	
6.17249	-0.231323	0.000457764	
6.17493	-0.231934	-0.000152588	
6.17584	-0.231934	-0.000762939	
6.17737	-0.23468	0.00106812	
6.17767	-0.236511	0.000152588	
6.17737	-0.236206	0	
6.17706	-0.236511	0.000152588	
6.17706	-0.236511	0	
6.17737	-0.236511	0.000305176	
6.17706	-0.239563	0.0012207	
6.17676	-0.241089	0.00137329	
6.17737	-0.241089	0.000305176	
6.17981	-0.242004	-0.000610352	
6.18164	-0.241699	0.0012207	
6.18225	-0.241394	0.000915527	
6.18256	-0.244141	0.000457764	
6.18134	-0.246277	0.000305176	
6.18195	-0.246582	0.000152588	
6.18195	-0.245972	0.000762939	
6.18225	-0.246582	0.000457764	
6.18103	-0.246277	0.000305176	
6.18164	-0.246277	0.000457764	
6.18164	-0.249939	0	
6.18378	-0.250854	0.00198364	
6.18652	-0.250854	0.000610352	
6.18713	-0.25116	0.000305176	
6.18683	-0.251465	0.0012207	
6.18744	-0.25116	0.000762939	
6.18774	-0.254822	0.000457764	
6.18683	-0.255737	-0.000305176	
6.18774	-0.256958	-0.000305176	
6.18622	-0.256042	0.000152588	
6.18713	-0.255737	-0.000457764	
6.19049	-0.256653	0.0012207	
6.19202	-0.259399	0.000152588	
6.19263	-0.260925	0.000457764	
6.19171	-0.26123	0.000762939	
6.19202	-0.260925	0.000762939	
6.19171	-0.260925	0.000457764	
6.19232	-0.263367	0.000610352	
6.19171	-0.265808	0.000457764	
6.19171	-0.265808	0	
6.19141	-0.266113	-0.00137329	
6.19476	-0.266418	0.0012207	
6.19659	-0.266113	0.000152588	
6.19659	-0.26886	0.000152588	
6.19629	-0.270386	0	
6.1972	-0.270691	-0.000152588	
6.1969	-0.270386	0	
6.1969	-0.270081	0.000762939	
6.1972	-0.270996	0.00137329	
6.1972	-0.273438	0.000305176	
6.1969	-0.275574	-0.000457764	
6.19965	-0.275269	0.00152588	
6.20117	-0.275574	0.000457764	
6.20178	-0.275879	0.000457764	
6.20148	-0.276184	0.000305176	
6.20178	-0.279236	0.000152588	
6.20239	-0.280457	0.000457764	
6.20148	-0.280762	0.000457764	
6.20239	-0.280151	0.000152588	
6.20148	-0.280762	0.000762939	
6.20422	-0.283813	-0.000152588	
6.20636	-0.285645	0.00183105	
6.20667	-0.285645	0.000610352	
6.20697	-0.285339	0.000457764	
6.20636	-0.285645	0.00106812	
6.20758	-0.285339	0.000610352	
6.20697	-0.289001	0.000610352	
6.20667	-0.290222	-0.000305176	
6.20667	-0.290527	-0.000610352	
6.21002	-0.290222	0.000457764	
6.21063	-0.290527	-0.000457764	
6.21185	-0.293884	0.000915527	
6.21216	-0.295105	0	
6.21185	-0.295105	0.000152588	
6.21216	-0.29541	0.000762939	
6.21094	-0.295715	0.000762939	
6.21216	-0.298157	0.000305176	
6.21246	-0.300598	0.000915527	
6.21429	-0.300903	0.000610352	
6.21674	-0.300293	0	
6.21704	-0.300293	-0.00167847	
6.21674	-0.300903	0.000610352	
6.21674	-0.30365	0.000152588	
6.21704	-0.305481	0.000152588	
6.21613	-0.305176	0	
6.21704	-0.305481	-0.000152588	
6.21735	-0.305176	0.000305176	
6.21887	-0.307617	0.000762939	
6.22162	-0.309753	0.00106812	
6.22162	-0.310059	0.000915527	
6.22131	-0.309753	-0.000305176	
6.22131	-0.310669	0.00167847	
6.22101	-0.31311	0.000457764	
6.22162	-0.314941	0.000457764	
6.22162	-0.315247	0.000152588	
6.22437	-0.315247	0	
6.2262	-0.314941	0.000915527	
6.2265	-0.315552	0.000152588	
6.22589	-0.317993	0	
6.2262	-0.319519	0.000610352	
6.2265	-0.320129	0.000152588	
6.2265	-0.319519	0.00183105	
6.22711	-0.319824	0.000457764	
6.2262	-0.322266	0.000457764	
6.22894	-0.324707	0.000762939	
6.23108	-0.324402	0.000915527	
6.23138	-0.325012	0.000457764	
6.23108	-0.324707	-0.000457764	
6.23108	-0.327454	-0.000305176	
6.23108	-0.329895	0.000152588	
6.23108	-0.329895	-0.000610352	
6.23077	-0.329895	0.0012207	
6.23383	-0.3302	0.000152588	
6.23627	-0.3302	0.000152588	
6.23657	-0.332642	0.000610352	
6.23657	-0.334778	0.000457764	
6.23688	-0.334473	0.000152588	
6.23657	-0.334473	0.000610352	
6.23627	-0.335083	0.000610352	
6.23657	-0.336914	0	
6.23871	-0.339355	-0.00106812	
6.24084	-0.339355	0.0012207	
6.24115	-0.338745	0.000457764	
6.24176	-0.339661	0.000305176	
6.24084	-0.342102	0.000152588	
6.24176	-0.344238	0.000305176	
6.24207	-0.343933	0.000152588	
6.24115	-0.344543	0.000915527	
6.24176	-0.344543	0.0012207	
6.2439	-0.34729	0.000610352	
6.24603	-0.349426	-0.000762939	
6.24695	-0.349426	0.00152588	
6.24603	-0.349121	0.000457764	
6.24634	-0.349426	0.000305176	
6.24634	-0.349426	0	
6.24634	-0.351563	0.000305176	
6.24634	-0.353088	0.000762939	
6.24969	-0.354004	0	
6.25	-0.354004	0.000152588	
6.25061	-0.354004	0.000457764	
6.25153	-0.357361	-0.000152588	
6.25183	-0.358887	0.00167847	
6.25061	-0.359192	0.000457764	
6.25092	-0.359192	0.000610352	
6.25122	-0.358582	0.000457764	
6.25366	-0.358887	0.000610352	
6.2561	-0.362549	0.000610352	
6.2558	-0.363464	-0.000152588	
6.2558	-0.364075	-0.000457764	
6.2561	-0.364685	0.000152588	
6.25641	-0.36377	-0.000457764	
6.2561	-0.364075	0.000915527	
6.2558	-0.366821	0.000152588	
6.25885	-0.368042	0.000305176	
6.26068	-0.368958	0.000457764	
6.26038	-0.368347	0.000610352	
6.26068	-0.368347	0.000610352	
6.26068	-0.37262	0.000915527	
6.26099	-0.373535	0.000457764	
6.26129	-0.375061	0.000305176	
6.26373	-0.37384	-0.0012207	
6.26587	-0.374146	0.0012207	
6.26587	-0.374146	0.000457764	
6.26526	-0.376587	0.000152588	
6.26617	-0.379028	0	
6.26587	-0.378723	0.000305176	
6.26587	-0.378723	0.000152588	
6.26587	-0.379028	0.000915527	
6.26831	-0.379028	0.000915527	
6.27045	-0.381775	0.000610352	
6.27106	-0.383911	-0.000762939	
6.27075	-0.383911	0.00152588	
6.27106	-0.383911	0.000762939	
6.27045	-0.383301	0.000457764	
6.27106	-0.383911	0	
6.27136	-0.386963	0.000152588	
6.27319	-0.388184	0.000610352	
6.27563	-0.388489	0	
6.27563	-0.388489	0.000152588	
6.27625	-0.388184	0.000762939	
6.27594	-0.388184	0	
6.27594	-0.388489	0.00167847	
6.27625	-0.391846	0.000762939	
6.27563	-0.392761	0.000457764	
6.27808	-0.392456	0.000457764	
6.27991	-0.393066	0.000610352	
6.28052	-0.393372	0.00106812	
6.28082	-0.393677	-0.000457764	
6.28021	-0.396118	-0.000610352	
6.28021	-0.397644	0.000305176	
6.28021	-0.398254	-0.000305176	
6.28357	-0.398254	0.000762939	
6.28571	-0.397644	0.000152588	
6.28632	-0.39856	0.000457764	
6.28601	-0.39856	0.000610352	
6.28571	-0.401306	0.000610352	
6.2854	-0.402832	0.000152588	
6.28571	-0.402832	0.000610352	
6.28571	-0.403137	0.000457764	
6.28876	-0.403137	0.000152588	
6.29059	-0.403442	-0.00106812	
6.29059	-0.402832	0.00106812	
6.29059	-0.402832	0	
6.29028	-0.406799	0	
6.29059	-0.40741	0.000305176	
6.2912	-0.40802	0.000457764	
6.29333	-0.407715	0.000152588	
6.29517	-0.407715	0.0012207	
6.29547	-0.40802	0.00152588	
6.29608	-0.40863	0.000610352	
6.29517	-0.408325	-0.000305176	
6.29608	-0.411377	0.00137329	
6.29578	-0.412598	0.000915527	
6.29578	-0.413208	0.000610352	
6.29852	-0.413513	0	
6.30005	-0.412292	0.000152588	
6.30035	-0.412292	0.000762939	
6.30066	-0.413208	0.000152588	
6.30127	-0.413208	0.000305176	
6.30035	-0.412903	0.000610352	
6.30066	-0.413513	0	
6.3031	-0.415649	0.00152588	
6.30463	-0.417175	0.000610352	
6.30493	-0.418091	0.000610352	
6.30524	-0.417786	0.000762939	
6.30585	-0.417786	0.000762939	
6.30585	-0.41748	0.000457764	
6.30554	-0.417786	-0.000305176	
6.30859	-0.417786	-0.000457764	
6.31012	-0.417786	0.000152588	
6.31073	-0.41748	-0.000457764	
6.31012	-0.418091	0.00106812	
6.31012	-0.418396	0	
6.31012	-0.421143	0.000457764	
6.30981	-0.422974	0.000610352	
6.31348	-0.422058	0.000457764	
6.315	-0.422363	0.000152588	
6.31561	-0.422974	0.000457764	
6.31561	-0.422974	0.000457764	
6.3147	-0.422668	-0.000152588	
6.315	-0.423584	-0.0012207	
6.31531	-0.422668	0.000915527	
6.31836	-0.422668	0.000457764	
6.31897	-0.422668	0.000152588	
6.32019	-0.422974	0.000152588	
6.3208	-0.422363	0.000152588	
6.3205	-0.422668	0	
6.32019	-0.422058	0.000915527	
6.32019	-0.422974	0.0012207	
6.3205	-0.422668	0.000762939	
6.32263	-0.422363	-0.000610352	
6.32416	-0.422668	0.00137329	
6.32538	-0.422974	0.000762939	
6.32507	-0.421753	0.000762939	
6.32507	-0.422974	0.000152588	
6.32507	-0.422668	0.000305176	
6.32507	-0.422668	0.000457764	
6.32782	-0.422974	0.000152588	
6.32965	-0.422974	0.000305176	
6.32996	-0.422058	0.000610352	
6.32965	-0.422058	-0.000305176	
6.32965	-0.422974	0.00183105	
6.33026	-0.422668	0.000457764	
6.32935	-0.422668	0.000305176	
6.33209	-0.422668	0.00106812	
6.33423	-0.422974	0.000762939	
6.33453	-0.422974	0.000457764	
6.33453	-0.422363	-0.000457764	
6.33423	-0.422058	-0.000152588	
6.33392	-0.422668	0	
6.33728	-0.422974	-0.000610352	
6.33911	-0.422668	0.00167847	
6.34003	-0.422363	0	
6.34033	-0.423279	0.000610352	
6.33942	-0.419922	0.000762939	
6.33942	-0.417786	0.000762939	
6.33972	-0.417786	0.000457764	
6.34277	-0.417786	0.000610352	
6.34369	-0.41748	0.000762939	
6.34399	-0.41748	0	
6.3446	-0.418091	-0.00106812	
6.34491	-0.41748	0.00106812	
6.3443	-0.417786	0.000610352	
6.34521	-0.417786	0.000152588	
6.34766	-0.415039	-0.000152588	
6.34918	-0.413513	0.000305176	
6.34918	-0.413208	0.000457764	
6.34888	-0.413208	0.00106812	
6.34979	-0.413513	0.00183105	
6.34979	-0.413208	0.000762939	
6.34918	-0.412903	-0.000610352	
6.35162	-0.409851	0.00152588	
6.35437	-0.40863	0.000762939	
6.35437	-0.40802	0.000457764	
6.35376	-0.407715	0.000152588	
6.35498	-0.408325	0.000305176	
6.35406	-0.408325	0.000457764	
6.35468	-0.404968	0.000762939	
6.35803	-0.402832	0.000305176	
6.35864	-0.402832	0.000915527	
6.35925	-0.403137	-0.000152588	
6.35895	-0.403137	0.00183105	
6.35956	-0.39978	0.000762939	
6.35956	-0.398254	0.000915527	
6.362	-0.39856	0.00106812	
6.36414	-0.397644	0.000915527	
6.36505	-0.397949	0.000610352	
6.36444	-0.395203	-0.000305176	
6.36414	-0.393982	-0.000610352	
6.36414	-0.393372	0	
6.36383	-0.392761	-0.000457764	
6.36688	-0.390015	0.00152588	
6.36871	-0.388794	0.000457764	
6.36932	-0.387878	0.000457764	
6.36932	-0.384521	0.000915527	
6.36993	-0.383606	0.000152588	
6.36932	-0.383606	0.000610352	
6.36993	-0.382996	0.000152588	
6.37268	-0.379944	0.000305176	
6.37451	-0.379333	0.000152588	
6.3736	-0.378418	-0.000915527	
6.37421	-0.375671	0.000915527	
6.37482	-0.374146	0.000152588	
6.37451	-0.373535	0	
6.37756	-0.370789	0.000305176	
6.37817	-0.368652	0	
6.37909	-0.368652	0.000457764	
6.37909	-0.365906	0.000915527	
6.3797	-0.364075	0.00137329	
6.37909	-0.360718	0.000762939	
6.37939	-0.359192	-0.000152588	
6.38184	-0.358887	0.0012207	
6.38397	-0.355835	0.000457764	
6.38458	-0.354919	0.000915527	
6.38428	-0.353699	0.000305176	
6.38428	-0.350952	0.000457764	
6.38489	-0.349731	0.000610352	
6.38672	-0.346375	0.000457764	
6.38947	-0.344238	0	
6.39008	-0.340576	0.000610352	
6.38885	-0.340576	-0.000610352	
6.38977	-0.339355	0.00167847	
6.38947	-0.336914	0.00106812	
6.38855	-0.334778	0.000610352	
6.39221	-0.331116	0.000915527	
6.39435	-0.329285	0.000610352	
6.39374	-0.325317	0.000457764	
6.39465	-0.324707	-0.000152588	
6.39465	-0.321655	-0.000305176	
6.39435	-0.319519	0.000305176	
6.39709	-0.316772	-0.000305176	
6.39893	-0.314941	0.00137329	
6.39893	-0.3125	0.000152588	
6.39923	-0.310364	0.000305176	
6.39923	-0.307312	0.000610352	
6.39923	-0.305481	0.000457764	
6.40167	-0.301819	0.000152588	
6.4035	-0.300903	0.000457764	
6.4035	-0.296631	0.000762939	
6.4035	-0.292664	0.000152588	
6.40442	-0.290527	-0.000915527	
6.40411	-0.28717	0.0012207	
6.40442	-0.28595	0.000152588	
6.40747	-0.282288	0.000610352	
6.40839	-0.281067	0.000152588	
6.409	-0.27771	0.000305176	
6.40808	-0.272827	0.000762939	
6.40839	-0.271301	0.00137329	
6.40839	-0.267334	0.00152588	
6.41205	-0.265808	0.000610352	
6.41296	-0.262756	-0.000305176	
6.41327	-0.258179	0.00183105	
6.41357	-0.256348	0.000457764	
6.41418	-0.252686	0.000610352	
6.41357	-0.248413	0	
6.41571	-0.246277	0.000152588	
6.41785	-0.24353	0.000762939	
6.41968	-0.241089	0.000152588	
6.41846	-0.237732	0.000305176	
6.41846	-0.233459	0.000610352	
6.41937	-0.231628	-0.000152588	
6.42151	-0.228271	0.00167847	
6.42334	-0.223694	0.000457764	
6.42334	-0.222473	0.000152588	
6.42365	-0.218506	0.000762939	
6.42395	-0.213318	0.000762939	
6.42334	-0.209351	0.000457764	
6.42395	-0.206604	0	
6.4267	-0.204163	-0.000305176	
6.42853	-0.19989	0.000305176	
6.42853	-0.198059	-0.000305176	
6.42883	-0.194092	0.00152588	
6.42853	-0.189209	0	
6.42883	-0.184937	0.000610352	
6.43188	-0.183105	0.000762939	
6.43341	-0.179443	0.000457764	
6.43341	-0.174866	0.000457764	
6.43402	-0.170288	0.000457764	
6.43341	-0.167542	0.000762939	
6.43341	-0.164795	0	
6.43646	-0.159912	-0.00106812	
6.43799	-0.155334	0.00106812	
6.43829	-0.153198	0.000305176	
6.43829	-0.149841	0.000305176	
6.4386	-0.145569	0.000305176	
6.43829	-0.140076	0.000152588	
6.44104	-0.138245	0.000152588	
6.44318	-0.134277	0.0012207	
6.44318	-0.130615	0.00152588	
6.44409	-0.126038	0.000762939	
6.44409	-0.12085	-0.000610352	
6.44348	-0.118713	0.00167847	
6.44592	-0.115662	0.000762939	
6.44775	-0.110779	0.000915527	
6.44806	-0.105896	0	
6.44897	-0.101624	0.000305176	
6.44806	-0.0994873	0.000762939	
6.44806	-0.0958252	0.000305176	
6.45111	-0.0912476	0.000152588	
6.45294	-0.0863647	0.000610352	
6.45264	-0.0817871	-0.000305176	
6.45325	-0.0799561	0.00152588	
6.45325	-0.0759888	0.000610352	
6.45325	-0.0720215	0.000915527	
6.45599	-0.0668335	0.000762939	
6.45752	-0.0619507	0.000762939	
6.45813	-0.057373	0.000610352	
6.45782	-0.055542	-0.000152588	
6.45813	-0.0512695	-0.000762939	
6.45813	-0.0476074	0.000305176	
6.46057	-0.0427246	-0.000762939	
6.4624	-0.0369263	0.00106812	
6.46332	-0.0320435	0.000305176	
6.46362	-0.0305176	0.000305176	
6.46271	-0.0268555	0.000762939	
6.46301	-0.0228882	0.000457764	
6.46515	-0.017395	0.000152588	
6.4679	-0.0131226	0.000457764	
6.46729	-0.00762939	0.000457764	
6.46851	-0.00610352	0.000152588	
6.46851	-0.00305176	-0.0012207	
6.47064	0.00183105	0.000762939	
6.47308	0.00610352	0	
6.47308	0.0109863	0.000457764	
6.47247	0.0161743	0.000152588	
6.47369	0.0213623	0.000305176	
6.47339	0.0228882	0.000305176	
6.47583	0.0265503	0.00106812	
6.47797	0.0308228	0.00152588	
6.47797	0.0360107	0.000152588	
6.47797	0.0408936	-0.000762939	
6.47827	0.0457764	0.00213623	
6.47797	0.0506592	0.000610352	
6.48071	0.0524902	0.000457764	
6.48285	0.055542	0.000152588	
6.48285	0.0613403	0	
6.48376	0.0653076	0.000305176	
6.48193	0.0708008	0.000305176	
6.48315	0.0747681	0.000457764	
6.4859	0.0799561	0.000610352	
6.48682	0.0808716	-0.000152588	
6.48712	0.0848389	0.00183105	
6.48773	0.0894165	0.000915527	
6.48773	0.0942993	0.000610352	
6.48743	0.0991821	0.000610352	
6.48987	0.10376	0.000762939	
6.49231	0.108948	0.000610352	
6.49261	0.111084	-0.000457764	
6.49231	0.113831	-0.000152588	
6.49261	0.119019	0.000305176	
6.49506	0.123596	-0.000457764	
6.49719	0.129089	0.00106812	
6.49719	0.133362	0.000305176	
6.4978	0.138245	0.000305176	
6.4978	0.140076	0.000915527	
6.4978	0.143738	0.00106812	
6.50024	0.148621	0.000305176	
6.50208	0.153809	0.000457764	
6.50238	0.157776	0.000305176	
6.50269	0.162964	0.000152588	
6.50238	0.16449	-0.0012207	
6.50208	0.167847	0.000915527	
6.50482	0.172729	0.000305176	
6.50726	0.178223	0.000152588	
6.50787	0.182495	0	
6.50726	0.186768	0.000457764	
6.50757	0.189209	0.000152588	
6.51031	0.192566	0.00106812	
6.51184	0.197754	0.00152588	
6.51276	0.202026	0.000915527	
6.51276	0.206909	-0.000457764	
6.51184	0.209351	0.00167847	
6.51184	0.212708	0.000610352	
6.5152	0.21637	0.000457764	
6.51703	0.221558	0.000152588	
6.51703	0.226135	0.000152588	
6.51764	0.228882	0.000457764	
6.51733	0.231934	0	
6.51764	0.236816	0.000152588	
6.52039	0.241394	0.000457764	
6.5213	0.246277	-0.000457764	
6.52161	0.248108	0.00198364	
6.52222	0.251465	0.000610352	
6.52283	0.256042	0.000610352	
6.52466	0.260925	0.000915527	
6.52679	0.265808	0.000762939	
6.52679	0.267944	0.000762939	
6.5274	0.271301	-0.000305176	
6.5274	0.275574	-0.000152588	
6.5274	0.280151	0.000305176	
6.52985	0.283813	-0.000305176	
6.53137	0.28656	0.00137329	
6.53137	0.290222	0.000305176	
6.53198	0.29541	0.000457764	
6.53198	0.297241	0.00106812	
6.53503	0.301208	0.000610352	
6.53687	0.304565	0.000305176	
6.53778	0.309753	0.000762939	
6.53778	0.31189	0.000457764	
6.53717	0.315552	0.000305176	
6.53656	0.319214	-0.000762939	
6.53992	0.324402	0.00106812	
6.54205	0.325928	0.000305176	
6.54266	0.329895	0.000457764	
6.54175	0.334167	-0.000152588	
6.54144	0.336304	0.000457764	
6.5451	0.339966	0.000305176	
6.54633	0.343628	0.00106812	
6.54663	0.345764	0.0012207	
6.54724	0.349426	0.000610352	
6.54663	0.354309	-0.000610352	
6.54724	0.356445	0.00167847	
6.55029	0.359802	0.000762939	
6.55182	0.36438	0.000762939	
6.55121	0.368652	0.000305176	
6.55151	0.370178	0.000152588	
6.55182	0.374451	0.000305176	
6.55457	0.375366	0.000152588	
6.55609	0.378723	0.000305176	
6.55762	0.383606	0.000915527	
6.5564	0.385437	-0.000152588	
6.55701	0.388184	0.00137329	
6.5567	0.393066	0.000915527	
6.55975	0.395508	0.000762939	
6.56128	0.39856	0.000457764	
6.56219	0.402527	0.000762939	
6.56189	0.404358	0.000305176	
6.56189	0.407715	-0.000152588	
6.56464	0.410156	-0.000305176	
6.56616	0.413513	0	
6.56647	0.417786	-0.000305176	
6.56647	0.419922	0.00137329	
6.56647	0.422363	0	
6.56677	0.4245	0.000305176	
6.56952	0.427856	0.000915527	
6.57104	0.432739	0.000610352	
6.57166	0.43457	0.000305176	
6.57135	0.437927	0.000305176	
6.57166	0.439148	0.000610352	
6.5741	0.442505	0.000152588	
6.57593	0.443726	-0.000610352	
6.57654	0.447388	0.000610352	
6.57654	0.449219	-0.000152588	
6.57684	0.452576	0	
6.57928	0.456543	0.000152588	
6.58081	0.45929	0.000610352	
6.58112	0.462036	0	
6.58112	0.464478	0.000762939	
6.58112	0.467224	0.0012207	
6.58081	0.469055	0.000610352	
6.58417	0.471802	-0.000762939	
6.586	0.473633	0.00167847	
6.58661	0.476379	0.000305176	
6.58691	0.478516	0.000305176	
6.58722	0.481262	0.000305176	
6.58966	0.483093	0.000457764	
6.59058	0.486145	0.000152588	
6.5918	0.487671	0.000152588	
6.5918	0.489197	0	
6.5918	0.491333	0.000457764	
6.59058	0.493774	-0.000152588	
6.59485	0.496216	0.00167847	
6.59546	0.498962	0.000305176	
6.59576	0.501099	0.000762939	
6.59668	0.50293	0.000610352	
6.59668	0.506897	0.000457764	
6.59882	0.508118	0.000152588	
6.60095	0.508118	0	
6.60095	0.511169	-0.000610352	
6.60156	0.512695	0.000305176	
6.60095	0.516052	-0.000305176	
6.604	0.517578	0.00106812	
6.60522	0.517578	0.000305176	
6.60645	0.52124	0.000457764	
6.60583	0.522461	0.000457764	
6.60614	0.525818	0.000457764	
6.60645	0.527649	0.000305176	
6.60919	0.528259	0.000305176	
6.61072	0.531006	0.000610352	
6.61102	0.532532	-0.000152588	
6.61041	0.533142	-0.000915527	
6.61072	0.536194	0.000915527	
6.61438	0.537415	0.000152588	
6.6156	0.538025	0.000152588	
6.61621	0.539856	0.000305176	
6.6156	0.541992	0.000457764	
6.6156	0.542908	0	
6.61835	0.545654	0.00106812	
6.62018	0.546875	0.00137329	
6.62018	0.54718	0.000915527	
6.6217	0.550537	-0.000610352	
6.62109	0.551147	0.00167847	
6.62384	0.552368	0.000457764	
6.62567	0.552368	0.000610352	
6.62567	0.55542	0.000152588	
6.62659	0.556335	0	
6.62659	0.557251	0.000457764	
6.62598	0.559998	0.000305176	
6.62872	0.561829	-0.000152588	
6.63025	0.562134	0.000305176	
6.63147	0.562439	-0.000152588	
6.63086	0.565491	0.00183105	
6.63086	0.566406	0.000610352	
6.6333	0.566711	0.000762939	
6.63483	0.567017	0.000915527	
6.63574	0.569763	0.000305176	
6.63605	0.571899	0.000762939	
6.63605	0.571899	0.000305176	
6.63849	0.572205	-0.000610352	
6.64063	0.572205	0	
6.64093	0.574951	-0.000457764	
6.64063	0.576172	0.00106812	
6.64124	0.576782	0.000305176	
6.64368	0.577087	0.000305176	
6.64551	0.576782	0.000762939	
6.64581	0.579834	0.000762939	
6.64551	0.58136	0.000152588	
6.6452	0.581665	0.000762939	
6.6452	0.58136	0.000457764	
6.64856	0.580444	0.000152588	
6.64978	0.58136	-0.00106812	
6.65039	0.58197	0.000762939	
6.6507	0.585022	0.000305176	
6.65131	0.585938	0.000152588	
6.65314	0.586548	0	
6.65436	0.586243	0.000457764	
6.65527	0.586548	0.000457764	
6.65558	0.586548	0.000915527	
6.65527	0.587158	0.0012207	
6.65833	0.586853	0.000457764	
6.66016	0.589905	-0.000762939	
6.66046	0.591431	0.00183105	
6.66046	0.591431	0.000762939	
6.66046	0.592346	0.000457764	
6.66321	0.591431	0.000152588	
6.66473	0.591431	-0.000152588	
6.66595	0.591736	0.000610352	
6.66595	0.591431	0.000610352	
6.66595	0.591736	0.000152588	
6.66779	0.591736	0.000610352	
6.66992	0.591736	-0.000457764	
6.66992	0.591125	0.00213623	
6.66992	0.592041	0.000305176	
6.67053	0.591125	0.000457764	
6.67053	0.591736	0.000610352	
6.67297	0.591736	0.000305176	
6.6748	0.591736	0.000610352	
6.67511	0.592041	-0.000152588	
6.67511	0.591736	-0.000457764	
6.6748	0.591431	0	
6.67786	0.592346	-0.000610352	
6.67999	0.592041	0.000915527	
6.6803	0.59082	0.000305176	
6.6803	0.591125	0.000152588	
6.6803	0.591431	0.000762939	
6.68365	0.591125	0.0012207	
6.68457	0.59082	0.000457764	
6.68488	0.591125	0.000305176	
6.6864	0.592041	0.000762939	
6.68488	0.592041	0.000305176	
6.68793	0.591431	-0.000610352	
6.69006	0.591431	0.000762939	
6.69006	0.591431	0.000457764	
6.69037	0.591125	0.000305176	
6.69006	0.591736	0	
6.69281	0.591431	0.000457764	
6.69556	0.592041	-0.000152588	
6.69495	0.591736	0.000915527	
6.69586	0.591736	0.00137329	
6.69495	0.592346	0.000915527	
6.69769	0.59082	-0.000457764	
6.69922	0.588074	0.00152588	
6.70013	0.587463	0.000915527	
6.69983	0.587158	0.000457764	
6.69983	0.587158	0	
6.70013	0.586243	0.000457764	
6.70319	0.586548	0.000915527	
6.70502	0.586548	0.000305176	
6.70563	0.586548	0.000152588	
6.70532	0.586548	0.00106812	
6.70502	0.583191	-0.000152588	
6.70807	0.58136	0.00198364	
6.70929	0.581665	0.000457764	
6.70959	0.58136	0.000610352	
6.70959	0.582275	0.000762939	
6.7099	0.58197	0.000457764	
6.71234	0.581055	0.000762939	
6.71448	0.578613	-0.000152588	
6.71417	0.576477	-0.000610352	
6.71448	0.576782	0	
6.71478	0.576477	-0.000610352	
6.71753	0.576782	0.0012207	
6.71936	0.576172	0.000152588	
6.71997	0.573425	0.000152588	
6.71906	0.571289	0.000915527	
6.71967	0.571289	0.000762939	
6.72241	0.571594	0.000152588	
6.72424	0.571594	0.000457764	
6.72546	0.568848	0.000762939	
6.72455	0.567627	0.000457764	
6.72424	0.566101	-0.000457764	
6.72638	0.566406	0.000915527	
6.72913	0.566101	0.000457764	
6.72943	0.56366	0.000305176	
6.72974	0.562134	0.000305176	
6.72913	0.561523	0.000610352	
6.72943	0.562134	0.000305176	
6.73279	0.561218	0.00106812	
6.73431	0.559692	0.00152588	
6.73431	0.557556	0.000762939	
6.73492	0.557251	-0.000762939	
6.73492	0.557251	0.00152588	
6.73828	0.553894	0.000457764	
6.7392	0.552979	0.000457764	
6.73981	0.552368	0.000152588	
6.7395	0.552673	0	
6.73889	0.549011	0.000305176	
6.74194	0.54718	0.000305176	
6.74469	0.547485	0.000305176	
6.74438	0.54718	0.000152588	
6.74469	0.543823	-0.000305176	
6.74408	0.542603	0.00198364	
6.74744	0.542603	0.000305176	
6.74866	0.539246	0.000762939	
6.74927	0.53772	0.000762939	
6.74957	0.537415	0.000305176	
6.74957	0.536804	0.000457764	
6.75201	0.534973	-0.000305176	
6.75354	0.532837	-0.000305176	
6.75415	0.532227	0.000152588	
6.75446	0.532532	-0.000762939	
6.75385	0.529175	0.00137329	
6.7569	0.528259	0.000152588	
6.75964	0.527344	0.000305176	
6.75995	0.525208	0.0012207	
6.75934	0.522766	0.000762939	
6.75934	0.521851	0.000457764	
6.75934	0.519714	0.000305176	
6.76147	0.517883	0.000610352	
6.76331	0.517883	0	
6.76453	0.514526	-0.000610352	
6.76392	0.513916	0.000762939	
6.76453	0.513	0.000305176	
6.76575	0.512695	0.000152588	
6.7688	0.509644	0.000152588	
6.7691	0.508423	0.000305176	
6.76971	0.507202	0.000152588	
6.7688	0.505371	0.00106812	
6.77185	0.50354	0.00106812	
6.77307	0.503235	0.000305176	
6.77429	0.500183	-0.000305176	
6.77368	0.498352	0.00152588	
6.77368	0.498657	0.000457764	
6.77704	0.494995	0.000915527	
6.77856	0.493469	0	
6.77917	0.493164	0	
6.77887	0.490723	0.000305176	
6.77948	0.488586	0.000457764	
6.78162	0.487671	0.000457764	
6.78406	0.485229	0.000457764	
6.78345	0.483398	-0.000305176	
6.78436	0.480042	0.00198364	
6.78406	0.47821	0.000457764	
6.7868	0.477905	0.000915527	
6.78894	0.475464	0.000610352	
6.78925	0.473633	0.000457764	
6.78833	0.473022	0.000457764	
6.78894	0.470581	0	
6.78864	0.46875	-0.000457764	
6.79077	0.468445	0.000305176	
6.79321	0.465698	-0.000915527	
6.79321	0.464478	0.00106812	
6.79382	0.464172	0	
6.79382	0.46051	0.000305176	
6.79688	0.459595	0.000915527	
6.7984	0.455627	0.000762939	
6.7981	0.454102	0.000152588	
6.79779	0.453796	0.000305176	
6.7984	0.451355	0.000457764	
6.80115	0.450134	0.000305176	
6.80298	0.449219	-0.000915527	
6.80298	0.445862	0.000762939	
6.80359	0.444336	0.000152588	
6.80328	0.440979	0.000610352	
6.80664	0.439758	0.000152588	
6.80786	0.439758	0.000610352	
6.80847	0.435791	0.000305176	
6.80878	0.435181	0.000762939	
6.80847	0.431213	0.00106812	
6.81091	0.430298	0.000610352	
6.81305	0.429688	-0.000610352	
6.81244	0.426636	0.00152588	
6.81335	0.424194	0.000152588	
6.81366	0.421448	0.000610352	
6.81335	0.419617	0.000305176	
6.8161	0.419617	0.000152588	
6.81824	0.41626	0.000305176	
6.81824	0.415039	0.000152588	
6.81793	0.411682	0.000305176	
6.81824	0.410767	0.000457764	
6.82068	0.410156	-0.000152588	
6.82281	0.406799	0.00183105	
6.82281	0.405273	0.000305176	
6.82343	0.401611	0.000457764	
6.82343	0.401001	0.000762939	
6.82678	0.400391	0.000305176	
6.828	0.396729	0.000762939	
6.828	0.394897	-0.000152588	
6.82892	0.392456	-0.000457764	
6.828	0.39093	0	
6.83105	0.389709	-0.000457764	
6.83289	0.387573	0.0012207	
6.83289	0.385742	0.000305176	
6.8335	0.382385	0.000152588	
6.83319	0.381165	0.000915527	
6.83319	0.380249	0.000915527	
6.83502	0.377808	0.000305176	
6.83716	0.375061	0.000762939	
6.83807	0.37262	0.000457764	
6.83777	0.371094	0.000305176	
6.83777	0.371094	-0.000915527	
6.84052	0.368042	0.000305176	
6.84265	0.365906	0.000152588	
6.84387	0.362854	0.000305176	
6.84265	0.360413	0	
6.84326	0.357971	0.000457764	
6.84631	0.35553	0.000152588	
6.84723	0.355835	0.000915527	
6.84814	0.352783	0.0012207	
6.84784	0.351563	0.000915527	
6.84753	0.347595	-0.000305176	
6.85028	0.346985	0.0012207	
6.85211	0.346069	0.00106812	
6.85272	0.343323	0.000457764	
6.85303	0.340881	0	
6.85333	0.337219	0	
6.85242	0.335999	0.000305176	
6.85669	0.333252	0.000152588	
6.8576	0.332336	0.000305176	
6.85791	0.330811	0.000762939	
6.8576	0.328369	-0.000457764	
6.85791	0.326843	0.00198364	
6.86035	0.323792	0.000457764	
6.86249	0.321045	0.000305176	
6.86279	0.321655	0.000915527	
6.8631	0.318604	0.000610352	
6.8631	0.317078	0.000305176	
6.86584	0.314026	0	
6.86676	0.31189	-0.000457764	
6.86707	0.309143	0	
6.86737	0.307312	-0.000610352	
6.86768	0.307617	0.000915527	
6.86798	0.303955	0.000457764	
6.87042	0.302429	0	
6.87195	0.299072	0.000610352	
6.87225	0.296936	0.000762939	
6.87256	0.297241	0.000305176	
6.87317	0.293884	0.000610352	
6.875	0.292053	0.000457764	
6.87683	0.289307	0.000457764	
6.87836	0.287781	-0.000610352	
6.87744	0.284729	0.0012207	
6.87714	0.282898	0.000305176	
6.87775	0.281982	0.000305176	
6.88049	0.279541	0.000305176	
6.88171	0.27771	0.000152588	
6.88263	0.274048	0.000305176	
6.88232	0.273438	0.0012207	
6.88263	0.272217	0.0012207	
6.88507	0.270081	0.000762939	
6.8866	0.26825	-0.000915527	
6.88721	0.264893	0.00183105	
6.88721	0.263672	0.000457764	
6.88782	0.263062	0.000610352	
6.89026	0.259705	-0.000152588	
6.89148	0.258179	0.000152588	
6.89209	0.254517	0.000610352	
6.8927	0.252991	0.000305176	
6.89209	0.252991	0.000152588	
6.89209	0.250244	0.000762939	
6.89514	0.248413	-0.000457764	
6.89667	0.245972	0.00213623	
6.89758	0.244141	0.000457764	
6.89789	0.240173	0.000610352	
6.89728	0.238037	0.000610352	
6.90002	0.238342	0.000152588	
6.90186	0.235291	0.000610352	
6.90216	0.233765	-0.000152588	
6.90216	0.230103	-0.000915527	
6.90216	0.229492	0.000152588	
6.90308	0.227966	-0.000457764	
6.90552	0.22522	0.00106812	
6.90613	0.223999	0.000457764	
6.90704	0.223083	0	
6.90735	0.220642	0.000762939	
6.90674	0.219116	0.000915527	
6.90948	0.215149	-0.000152588	
6.91193	0.214539	0.000457764	
6.91254	0.213623	0.000457764	
6.91254	0.210876	0	
6.91162	0.209351	-0.000762939	
6.91223	0.205383	0.00106812	
6.91498	0.203552	0.000152588	
6.9165	0.203857	0	
6.91711	0.201111	-0.000152588	
6.91742	0.19928	0.000152588	
6.91803	0.195618	0.000152588	
6.91986	0.195007	0.00106812	
6.92169	0.193787	0.00106812	
6.9223	0.19104	0.000457764	
6.922	0.188904	-0.000915527	
6.922	0.189209	0.00183105	
6.922	0.186157	0.000610352	
6.92505	0.184937	0.000457764	
6.92657	0.181274	0.000305176	
6.92749	0.179138	-0.000152588	
6.92657	0.178833	0.000152588	
6.92749	0.176086	0.000152588	
6.92963	0.175476	0	
6.93146	0.173645	0.000762939	
6.93207	0.171509	-0.000457764	
6.93176	0.169373	0.00198364	
6.93176	0.166931	0.000610352	
6.93176	0.164795	0.000457764	
6.93481	0.16449	0.000915527	
6.93695	0.161438	0.000305176	
6.93665	0.160522	0.000305176	
6.93695	0.159302	-0.000152588	
6.93665	0.15625	-0.000762939	
6.94	0.154724	0	
6.94092	0.155029	-0.000457764	
6.94153	0.151672	0.0012207	
6.94214	0.150452	0.000610352	
6.94122	0.147095	0.000152588	
6.94153	0.145264	0.000610352	
6.94458	0.144653	0.000762939	
6.94611	0.142212	0.000457764	
6.94641	0.140991	0.000305176	
6.94672	0.140076	0.000457764	
6.94672	0.137024	0.000305176	
6.94885	0.135498	-0.00106812	
6.95099	0.135193	0.000457764	
6.95099	0.132141	0	
6.95129	0.131226	0.000457764	
6.95129	0.13031	0	
6.9516	0.128174	0.000762939	
6.95404	0.125732	0.000305176	
6.95587	0.125732	0.00106812	
6.95679	0.122681	0.000915527	
6.95587	0.12085	0.000610352	
6.95587	0.120239	-0.000762939	
6.95648	0.117493	0.00167847	
6.95892	0.116272	0.000762939	
6.96136	0.115356	0.000457764	
6.96136	0.11322	-0.000152588	
6.96045	0.111084	0	
6.96045	0.110779	0.000762939	
6.96442	0.107422	0	
6.96625	0.106201	0.000305176	
6.96655	0.105896	0.000457764	
6.96625	0.103149	-0.000457764	
6.96625	0.101013	0.00183105	
6.96625	0.100708	0.000457764	
6.96899	0.0985718	0.000762939	
6.97052	0.0961304	0.000915527	
6.97144	0.0961304	0.000457764	
6.97174	0.0927734	0.000762939	
6.97113	0.0912476	-0.000152588	
6.97083	0.0915527	-0.00106812	
6.97388	0.0888062	0	
6.97571	0.0863647	-0.000762939	
6.97632	0.0863647	0.000915527	
6.97632	0.0863647	0.000152588	
6.9751	0.0836182	-0.000152588	
6.97632	0.0820923	0.000762939	
6.97937	0.0817871	0.000457764	
6.98059	0.0793457	0.000152588	
6.9809	0.078125	0.000152588	
6.9812	0.0775146	0.000610352	
6.98181	0.0735474	0	
6.98395	0.072937	-0.000762939	
6.98486	0.072937	0.000610352	
6.98578	0.072937	0.000305176	
6.98578	0.0695801	0	
6.98639	0.067749	-0.000305176	
6.98669	0.0671387	0.000305176	
6.98822	0.0637817	0.000305176	
6.99127	0.0622559	0.000762939	
6.99066	0.0628662	0.00137329	
6.99158	0.0619507	0.00106812	
6.99097	0.0592041	-0.000610352	
6.99127	0.0579834	0.00167847	
6.99402	0.0576782	0.000610352	
6.99524	0.0543213	0.000610352	
6.99615	0.0531006	-0.000152588	
6.99554	0.0527954	0.000152588	
6.99615	0.0524902	0.000305176	
6.99585	0.050354	0.000305176	
6.9989	0.0479126	0.000305176	
7.00012	0.0473022	0.000457764	
7.00043	0.0469971	-0.000305176	
7.00073	0.0439453	0.00198364	
7.00012	0.043335	0.000915527	
7.00104	0.0430298	0.000610352	
7.00409	0.0402832	0.000915527	
7.00562	0.0378418	0.000305176	
7.00562	0.0375366	0.000152588	
7.00592	0.0372314	-0.000152588	
7.00623	0.0350952	-0.000305176	
7.005	0.0326538	0.000305176	
7.00836	0.0326538	-0.000457764	
7.0105	0.0332642	0.0012207	
7.01111	0.0302124	0.000152588	
7.01141	0.0283813	0	
7.00989	0.0280762	0.000762939	
7.0105	0.0283813	0.000762939	
7.01324	0.0253296	0.000457764	
7.01569	0.0238037	0.000457764	
7.01538	0.0234985	0.000305176	
7.01538	0.0228882	0.000305176	
7.01538	0.0201416	-0.00106812	
7.0163	0.0186157	0.000762939	
7.01843	0.0180054	0.000152588	
7.02057	0.0180054	0.000152588	
7.02148	0.0149536	0.000152588	
7.02087	0.0131226	0.000305176	
7.02118	0.0131226	0	
7.02087	0.012207	0.000457764	
7.02332	0.010376	0.00106812	
7.02545	0.0088501	0.000457764	
7.02515	0.00823975	-0.000457764	
7.02637	0.00854492	0.00137329	
7.02545	0.00549316	0.000152588	
7.02576	0.00366211	0.000457764	
7.0285	0.00335693	0	
7.03033	0.00366211	0	
7.03064	0.00366211	0.000152588	
7.03094	-0.000305176	0.000610352	
7.03064	-0.000610352	0.000457764	
7.03064	-0.000610352	0.000915527	
7.03308	-0.00152588	-0.000610352	
7.03491	-0.00427246	0.00213623	
7.03522	-0.00610352	0.00106812	
7.03491	-0.00579834	0.000152588	
7.03552	-0.00610352	0.000762939	
7.03552	-0.00671387	0.000152588	
7.03796	-0.00946045	0.000610352	
7.03979	-0.010376	0	
7.0401	-0.0106812	-0.000305176	
7.04071	-0.0112915	-0.000152588	
7.03979	-0.0137329	-0.000762939	
7.04041	-0.0158691	0.0012207	
7.04254	-0.0164795	0.000305176	
7.04437	-0.0161743	-0.000152588	
7.0459	-0.0167847	0.000762939	
7.04498	-0.0183105	0.000762939	
7.04529	-0.020752	0.000305176	
7.04529	-0.0204468	0.000152588	
7.04803	-0.020752	0.000457764	
7.04956	-0.020752	0.000457764	
7.05017	-0.0241089	-0.000762939	
7.05017	-0.0253296	0.000457764	
7.05078	-0.0259399	0.000152588	
7.04987	-0.0262451	0.000305176	
7.05322	-0.0286865	0.000152588	
7.05505	-0.0305176	0.000610352	
7.05536	-0.0311279	0.000305176	
7.05505	-0.0305176	0.000457764	
7.05566	-0.0299072	0.000915527	
7.05475	-0.0338745	0.000762939	
7.05566	-0.03479	-0.000762939	
7.0578	-0.0360107	0.00137329	
7.05902	-0.0344849	0.000305176	
7.05994	-0.0354004	0.000610352	
7.05963	-0.0384521	0.000152588	
7.06024	-0.0402832	0.000305176	
7.05994	-0.0405884	0	
7.0636	-0.0411987	0.000152588	
7.06421	-0.0405884	0.000305176	
7.06512	-0.0405884	0.000152588	
7.06482	-0.0439453	-0.000305176	
7.06543	-0.045166	0.00198364	
7.06482	-0.045166	0.000762939	
7.06818	-0.0457764	0.000457764	
7.0694	-0.045166	0.000762939	
7.0697	-0.0485229	0.000457764	
7.0697	-0.0500488	0.000305176	
7.0694	-0.0500488	-0.000152588	
7.0694	-0.050354	-0.000305176	
7.07062	-0.0500488	0.000305176	
7.07275	-0.0531006	-0.000610352	
7.07458	-0.0546265	0.00137329	
7.0752	-0.055542	0.000152588	
7.0755	-0.0546265	0.000305176	
7.07428	-0.0558472	0.000762939	
7.0752	-0.0585938	0.000762939	
7.07825	-0.0598145	0.000457764	
7.07947	-0.0610352	0.000305176	
7.08008	-0.0604248	0.000305176	
7.07977	-0.0604248	0	
7.08038	-0.06073	-0.000610352	
7.08069	-0.0634766	0.000457764	
7.08252	-0.0653076	0.000305176	
7.08405	-0.0650024	0.000457764	
7.08496	-0.0643921	0.000305176	
7.08466	-0.0643921	0.000457764	
7.08496	-0.0653076	0	
7.08405	-0.0683594	0.0012207	
7.08557	-0.0689697	0.000915527	
7.08771	-0.0701904	0.000457764	
7.08893	-0.0695801	-0.000610352	
7.08984	-0.0698853	0.00152588	
7.08893	-0.072937	0.000305176	
7.08984	-0.0744629	0.000610352	
7.08923	-0.0747681	0.000152588	
7.09259	-0.0747681	0	
7.09381	-0.0753784	0.000610352	
7.09473	-0.0750732	0.000305176	
7.09473	-0.0778198	0.000457764	
7.09473	-0.0790405	0.000457764	
7.09503	-0.0796509	-0.000915527	
7.09473	-0.0799561	0.00198364	
7.09717	-0.0802612	0.000762939	
7.0993	-0.0799561	0.000610352	
7.09991	-0.0823975	0.000457764	
7.09991	-0.0842285	0.000610352	
7.0993	-0.0845337	0.000610352	
7.09991	-0.0845337	-0.000152588	
7.09961	-0.0848389	-0.000152588	
7.10266	-0.0845337	0.000152588	
7.10388	-0.0878906	-0.000762939	
7.1048	-0.0888062	0.00137329	
7.1051	-0.0900269	0.000305176	
7.10419	-0.0900269	0	
7.10449	-0.0897217	0.000915527	
7.10724	-0.0888062	0.000610352	
7.10907	-0.0924683	0.000457764	
7.10999	-0.093689	0.000610352	
7.10907	-0.0939941	0.000457764	
7.10938	-0.0939941	0.000305176	
7.10999	-0.0946045	-0.000762939	
7.10938	-0.0949097	0.000762939	
7.11151	-0.0982666	0.000305176	
7.11334	-0.0997925	0.000305176	
7.11426	-0.0994873	0.000305176	
7.11395	-0.0994873	0.000305176	
7.11426	-0.098877	0.000305176	
7.11456	-0.0994873	0.000610352	
7.11426	-0.098877	0.0012207	
7.117	-0.101929	0.000457764	
7.11853	-0.104065	-0.000915527	
7.11945	-0.10437	0.00167847	
7.11884	-0.10437	0.000152588	
7.11914	-0.10376	0.000915527	
7.11914	-0.10437	0.000457764	
7.12189	-0.107727	0.000152588	
7.12402	-0.108643	0.000152588	
7.12341	-0.109253	0.000152588	
7.12433	-0.108643	0.000305176	
7.12433	-0.108643	0.000305176	
7.12402	-0.109558	-0.000610352	
7.12402	-0.111694	0.00213623	
7.12708	-0.114441	0.000762939	
7.12799	-0.113831	0.000457764	
7.12891	-0.113525	0.000915527	
7.1283	-0.114136	0.000305176	
7.12891	-0.113525	0.000915527	
7.12921	-0.114441	0.000152588	
7.12891	-0.116882	-0.000457764	
7.13165	-0.118713	0	
7.13379	-0.119019	-0.000762939	
7.13379	-0.119324	0.00137329	
7.13379	-0.119019	0.000305176	
7.1347	-0.119324	0	
7.1344	-0.119019	0.000457764	
7.13379	-0.12146	0.000915527	
7.13715	-0.123901	0.000305176	
7.13867	-0.123901	0.000152588	
7.13898	-0.125122	0.000457764	
7.13898	-0.123596	0	
7.13898	-0.123901	-0.000762939	
7.13928	-0.127258	0.000762939	
7.13867	-0.129089	0	
7.14111	-0.128784	0.000305176	
7.14294	-0.129089	0.000152588	
7.14417	-0.128479	0.000610352	
7.14386	-0.128784	0.000457764	
7.14447	-0.128784	0.000457764	
7.14355	-0.131531	0.00137329	
7.14355	-0.133972	0.000762939	
7.14691	-0.133667	-0.000610352	
7.14874	-0.134277	0.00183105	
7.14905	-0.133057	0.000305176	
7.14905	-0.133362	0.000457764	
7.14844	-0.133667	0.000305176	
7.14905	-0.136414	0.000152588	
7.14874	-0.138245	0.000762939	
7.15088	-0.138855	-0.000152588	
7.15363	-0.13855	0.000305176	
7.15424	-0.13855	0.000457764	
7.15393	-0.13855	-0.000305176	
7.15393	-0.13855	0.00198364	
7.15332	-0.141296	0.00106812	
7.15332	-0.142822	0.000457764	
7.15668	-0.143433	0.000762939	
7.15851	-0.143433	0.000457764	
7.15851	-0.142822	0.000457764	
7.15881	-0.143738	-0.000152588	
7.1582	-0.147095	-0.000305176	
7.15881	-0.14801	0	
7.15851	-0.148926	-0.000610352	
7.16125	-0.14801	0.000915527	
7.16309	-0.14801	0.000610352	
7.16431	-0.14801	0	
7.16431	-0.147705	0.000610352	
7.16339	-0.151062	0.000610352	
7.1637	-0.153503	0.000305176	
7.164	-0.153198	0.000152588	
7.16614	-0.153198	0.000457764	
7.16797	-0.154114	0.000610352	
7.16919	-0.153809	-0.000610352	
7.16919	-0.153198	0.000762939	
7.16827	-0.15625	0	
7.16827	-0.158081	0.000305176	
7.16919	-0.158081	0	
7.17072	-0.157776	0.000457764	
7.17377	-0.158081	0.000305176	
7.17377	-0.158691	0.000915527	
7.17407	-0.158691	0.000915527	
7.17407	-0.160522	0.000457764	
7.17346	-0.162659	-0.000915527	
7.17377	-0.163269	0.00167847	
7.17407	-0.162659	0.000152588	
7.17682	-0.162354	0.000915527	
7.17804	-0.163269	0	
7.17896	-0.163269	0	
7.17804	-0.165405	0.000305176	
7.17896	-0.167236	0.000457764	
7.17926	-0.167542	0.000305176	
7.17834	-0.168152	0.000305176	
7.1814	-0.167542	-0.000457764	
7.18292	-0.167236	0.00198364	
7.18323	-0.167847	0.000610352	
7.18323	-0.171204	0.000457764	
7.18353	-0.171814	0.000457764	
7.18353	-0.172424	0.000305176	
7.18445	-0.172729	0.000610352	
7.18628	-0.172729	0.000305176	
7.1875	-0.172424	-0.000305176	
7.18781	-0.172729	-0.000152588	
7.18811	-0.175781	-0.000457764	
7.18811	-0.177307	0.00106812	
7.18811	-0.177917	0.000457764	
7.18781	-0.177612	0	
7.18872	-0.177307	0.000610352	
7.19116	-0.177917	0.000610352	
7.19269	-0.178223	0.000457764	
7.19269	-0.180054	0.000457764	
7.19299	-0.183105	0.000457764	
7.1933	-0.18219	0.000305176	
7.19299	-0.183105	-0.000610352	
7.1933	-0.183716	0.000610352	
7.19635	-0.183105	0.000305176	
7.19788	-0.1828	0.000305176	
7.19788	-0.185547	-0.000152588	
7.19818	-0.187683	0.000457764	
7.19849	-0.187378	0.000305176	
7.19849	-0.187988	0.000610352	
7.19788	-0.187073	0.00152588	
7.19879	-0.187378	0.000762939	
7.20093	-0.188293	-0.000762939	
7.20276	-0.190125	0.00167847	
7.20337	-0.191956	0.000457764	
7.20337	-0.192261	0.000915527	
7.20245	-0.192261	0.000305176	
7.20276	-0.192261	-0.000152588	
7.20306	-0.192261	0.000457764	
7.20612	-0.191956	0.000457764	
7.20825	-0.196228	0.000305176	
7.20795	-0.196838	0.000305176	
7.20825	-0.198059	-0.000305176	
7.20825	-0.197144	0.00228882	
7.20795	-0.197144	0.000762939	
7.20795	-0.197754	0.000610352	
7.20825	-0.197449	0.000915527	
7.211	-0.19989	0.000457764	
7.21283	-0.202637	0.000457764	
7.21375	-0.202332	-0.000152588	
7.21313	-0.202026	0.000152588	
7.21283	-0.202332	-0.000457764	
7.21344	-0.202332	-0.000762939	
7.21344	-0.202637	0.00106812	
7.21619	-0.205078	0.000457764	
7.21741	-0.206604	0	
7.21771	-0.207214	0.000915527	
7.21832	-0.206909	0.000305176	
7.21771	-0.207214	0.000152588	
7.21863	-0.206909	0.000457764	
7.21802	-0.20752	0.000457764	
7.21771	-0.207214	0.000610352	
7.22107	-0.210571	-0.000915527	
7.22321	-0.211792	0.000305176	
7.2229	-0.212097	0.000152588	
7.22321	-0.212097	0.000305176	
7.2229	-0.212708	-0.000152588	
7.2226	-0.212097	0.000305176	
7.2229	-0.212402	0.000610352	
7.2226	-0.215149	0.000457764	
7.22626	-0.217285	0.000915527	
7.22687	-0.216675	0.000915527	
7.22778	-0.217896	-0.000610352	
7.22748	-0.21759	0.00152588	
7.22778	-0.21698	0.000457764	
7.2287	-0.21698	0.000762939	
7.2287	-0.21759	0	
7.22839	-0.220032	0.000305176	
7.22992	-0.221252	0.000305176	
7.23297	-0.221863	0.000152588	
7.23297	-0.222473	0.000305176	
7.23297	-0.222168	0.000152588	
7.23328	-0.221863	-0.000457764	
7.23297	-0.221863	0.00183105	
7.23328	-0.224609	0.000610352	
7.23572	-0.226135	0.000457764	
7.23724	-0.226746	0.00106812	
7.23755	-0.22644	0.000305176	
7.23755	-0.22644	0.000762939	
7.23755	-0.226746	-0.000152588	
7.23755	-0.226746	-0.000152588	
7.23785	-0.227356	-0.000152588	
7.23785	-0.229492	-0.000305176	
7.2403	-0.231628	0.00137329	
7.24213	-0.232544	0.000305176	
7.24274	-0.231934	0.000305176	
7.24274	-0.231934	0.000457764	
7.24213	-0.231628	0.000610352	
7.24274	-0.231628	0.000457764	
7.24304	-0.234375	0.000457764	
7.24335	-0.235596	0.000305176	
7.24487	-0.236511	-0.000152588	
7.24731	-0.236511	-0.000915527	
7.24731	-0.235901	0.000610352	
7.24731	-0.235901	-0.000152588	
7.24731	-0.236816	0.000457764	
7.24792	-0.235901	0.000152588	
7.24762	-0.239258	0.000305176	
7.24731	-0.241089	0	
7.25098	-0.241699	0.000762939	
7.2522	-0.241089	0.00106812	
7.25281	-0.241699	0.000915527	
7.2522	-0.241699	-0.00106812	
7.25189	-0.241089	0.00152588	
7.2522	-0.241699	0.000457764	
7.2525	-0.244751	0.000457764	
7.2525	-0.246277	0	
7.25525	-0.246582	0.000152588	
7.25677	-0.246582	0.000305176	
7.25739	-0.246277	0.000305176	
7.25708	-0.246582	-0.000152588	
7.25769	-0.246277	0.000305176	
7.25739	-0.246277	-0.000457764	
7.25739	-0.249329	0.00213623	
7.25769	-0.250854	0.000152588	
7.26074	-0.250244	0.000457764	
7.26227	-0.250854	0.000610352	
7.26166	-0.25116	0.000457764	
7.26227	-0.250244	0.000762939	
7.26257	-0.251465	-0.000152588	
7.26227	-0.25116	-0.000152588	
7.26196	-0.254822	-0.000152588	
7.26227	-0.256653	-0.000610352	
7.26227	-0.255737	0.00106812	
7.26563	-0.256348	0.000610352	
7.26746	-0.256348	0.000152588	
7.26715	-0.255737	0.000915527	
7.26715	-0.256348	0.000457764	
7.26715	-0.256653	0.000610352	
7.26685	-0.259094	0.000305176	
7.26776	-0.260315	0	
7.26746	-0.260925	0.000305176	
7.2699	-0.26123	-0.00106812	
7.27173	-0.260315	0.000457764	
7.27203	-0.261536	0	
7.27295	-0.260925	0.000457764	
7.27234	-0.26062	0	
7.27203	-0.263672	0.000152588	
7.27203	-0.265503	0.000457764	
7.27173	-0.266113	0.000610352	
7.27478	-0.265503	0.00152588	
7.27661	-0.266724	0.000305176	
7.27753	-0.266418	-0.000762939	
7.27722	-0.265503	0.00137329	
7.27722	-0.266113	0.000762939	
7.27722	-0.266113	0.000457764	
7.27722	-0.26947	-0.000152588	
7.27722	-0.270386	0.000152588	
7.28027	-0.270386	0.000457764	
7.28149	-0.270996	0.000457764	
7.28241	-0.270691	0.000457764	
7.2821	-0.270386	0	
7.28241	-0.270996	-0.000305176	
7.2821	-0.270996	0.00228882	
7.2818	-0.273743	0.000762939	
7.2821	-0.275574	0.000610352	
7.28241	-0.275879	0.000762939	
7.28516	-0.276184	0.000457764	
7.28638	-0.276184	0.000610352	
7.28668	-0.275269	0.000305176	
7.28699	-0.275269	-0.000305176	
7.28699	-0.275574	-0.000152588	
7.2876	-0.276184	-0.000610352	
7.28668	-0.279236	0.00106812	
7.28729	-0.281067	0.000610352	
7.28943	-0.280457	0	
7.29156	-0.281067	0.000305176	
7.29126	-0.280762	0.000610352	
7.29187	-0.281067	0.000915527	
7.29187	-0.280457	0	
7.29187	-0.280457	0.000305176	
7.29156	-0.283508	0	
7.29248	-0.285645	-0.00106812	
7.29187	-0.285645	0.000915527	
7.29523	-0.285339	-0.000305176	
7.29706	-0.285339	0.000305176	
7.29706	-0.285645	0.000305176	
7.29675	-0.285339	0.000152588	
7.29706	-0.285034	0.000152588	
7.29675	-0.285034	0.000762939	
7.29736	-0.289001	0.00106812	
7.29706	-0.290222	0.000762939	
7.2998	-0.290833	-0.000610352	
7.30164	-0.290222	0.00152588	
7.30164	-0.290527	0.000457764	
7.30194	-0.290222	0.000762939	
7.30194	-0.290833	0.000152588	
7.30194	-0.290833	0	
7.30194	-0.290527	0.000152588	
7.30164	-0.292664	0.000152588	
7.30225	-0.29541	-0.000152588	
7.30469	-0.295715	0.000305176	
7.30621	-0.295715	-0.000915527	
7.30713	-0.295105	0.00228882	
7.30652	-0.295105	0.000610352	
7.30743	-0.29541	0.000457764	
7.30652	-0.294495	0.000762939	
7.30652	-0.295105	0.000457764	
7.30621	-0.298767	0.000762939	
7.30713	-0.300598	0	
7.30957	-0.300598	-0.000457764	
7.3111	-0.300293	0	
7.31171	-0.301208	-0.000762939	
7.31232	-0.299683	0.00137329	
7.31171	-0.299988	0.000610352	
7.31232	-0.299988	0.000152588	
7.31232	-0.299988	0.000610352	
7.31201	-0.300598	0.000152588	
7.31171	-0.30365	0.000457764	
7.31415	-0.304871	0.000152588	
7.31689	-0.305786	0.000457764	
7.31659	-0.305176	0.000152588	
7.31628	-0.305786	-0.000915527	
7.31689	-0.305176	0.000152588	
7.31628	-0.305176	-0.000152588	
7.31628	-0.305786	0.000457764	
7.31659	-0.305786	0.000305176	
7.31659	-0.307922	0	
7.32025	-0.310059	0.000152588	
7.32117	-0.309448	0.000305176	
7.32147	-0.310059	0.0012207	
7.32117	-0.310364	0.000610352	
7.32147	-0.310364	-0.000610352	
7.32239	-0.310364	0.00137329	
7.32178	-0.310364	0.000457764	
7.32147	-0.310669	0.000457764	
7.32147	-0.310669	0.000152588	
7.32483	-0.31311	0	
7.32697	-0.314331	0.000610352	
7.32697	-0.314941	0.000305176	
7.32605	-0.315552	0.000152588	
7.32697	-0.315552	0.000457764	
7.32635	-0.314636	-0.000457764	
7.32666	-0.314941	0.00198364	
7.32666	-0.314636	0.000610352	
7.32697	-0.314941	0.000457764	
7.3291	-0.314026	0.000457764	
7.33124	-0.317688	0.000457764	
7.33185	-0.319519	0.000762939	
7.33124	-0.320129	0	
7.33154	-0.319824	-0.000610352	
7.33124	-0.319519	0	
7.33154	-0.320435	-0.000457764	
7.33124	-0.319519	0.000915527	
7.33185	-0.319214	0.000457764	
7.33459	-0.319214	0.000457764	
7.33612	-0.319519	0.000457764	
7.33643	-0.322571	0.000762939	
7.33704	-0.323792	0.000152588	
7.33673	-0.325012	0.000305176	
7.33704	-0.324402	0.000610352	
7.33673	-0.323792	0.000457764	
7.33643	-0.324707	-0.000610352	
7.33643	-0.324097	0.000305176	
7.33978	-0.324707	0.000152588	
7.341	-0.324707	0.000152588	
7.34222	-0.325012	0	
7.34131	-0.324707	0.000305176	
7.34131	-0.327759	0.000152588	
7.34131	-0.328674	0.000915527	
7.34131	-0.329285	0.00106812	
7.34131	-0.32959	0.000457764	
7.34192	-0.328979	-0.000762939	
7.34131	-0.32959	0.00183105	
7.34375	-0.329285	0.000305176	
7.34558	-0.329895	0.000610352	
7.34589	-0.32959	0.000152588	
7.34589	-0.329895	0.000152588	
7.3465	-0.32959	0.000457764	
7.3465	-0.333252	0.000457764	
7.34619	-0.334778	0.000457764	
7.34619	-0.334778	0.000457764	
7.3468	-0.334167	-0.000457764	
7.34894	-0.335083	0.00228882	
7.35077	-0.334167	0.000457764	
7.35107	-0.334473	0.000762939	
7.35138	-0.334473	0.000915527	
7.35077	-0.334167	0.000457764	
7.35168	-0.334473	0.000762939	
7.35168	-0.335083	0.000305176	
7.35168	-0.33783	-0.000457764	
7.35077	-0.339661	0	
7.35168	-0.33905	-0.000305176	
7.35474	-0.339661	0.00106812	
7.35626	-0.338745	0.000457764	
7.35657	-0.33905	-0.000152588	
7.35596	-0.339355	0.000610352	
7.35626	-0.339661	0.000457764	
7.35626	-0.340576	0.000152588	
7.35626	-0.33905	0.000152588	
7.35657	-0.339355	0	
7.35596	-0.340576	0	
7.35596	-0.342712	-0.000762939	
7.35901	-0.343933	0.000762939	
7.36084	-0.343933	0.000305176	
7.36145	-0.344238	0.000152588	
7.36145	-0.344543	0	
7.36084	-0.344543	0.000457764	
7.36084	-0.343628	-0.000152588	
7.36084	-0.344238	0.000457764	
7.36084	-0.344849	0.00152588	
7.36084	-0.344238	0.00106812	
7.36328	-0.343628	-0.000610352	
7.36572	-0.344543	0.00183105	
7.36572	-0.343933	0.000152588	
7.36633	-0.34668	0.000610352	
7.36542	-0.348816	0.000457764	
7.36603	-0.349731	0.000152588	
7.36633	-0.349426	0.000305176	
7.36664	-0.348511	0.000610352	
7.36633	-0.349121	0.000762939	
7.36633	-0.348511	0.000305176	
7.36847	-0.349121	-0.000305176	
7.37061	-0.348816	0.00244141	
7.37091	-0.349426	0.000457764	
7.37091	-0.348511	0.000610352	
7.37152	-0.350037	0.000762939	
7.37091	-0.348816	0.000610352	
7.37091	-0.349121	0.000457764	
7.37122	-0.349426	0.000305176	
7.37091	-0.351868	-0.000305176	
7.37091	-0.353394	0	
7.37122	-0.354004	-0.000457764	
7.37396	-0.354309	0.0012207	
7.37549	-0.354004	0.000610352	
7.37579	-0.354309	0	
7.3761	-0.354004	0.000762939	
7.37579	-0.354004	0.000457764	
7.37671	-0.354004	0.000457764	
7.3761	-0.353699	0.000457764	
7.3761	-0.354309	0.000152588	
7.3761	-0.354919	0.000610352	
7.3764	-0.354614	-0.0012207	
7.37885	-0.354309	0.000457764	
7.38098	-0.354004	0	
7.38037	-0.353699	0.000152588	
7.38098	-0.354614	0.000305176	
7.38068	-0.354614	0.000457764	
7.38068	-0.357361	0.000152588	
7.38129	-0.359192	0.000152588	
7.38068	-0.358276	0.00106812	
7.38068	-0.359497	0.000915527	
7.38037	-0.358887	-0.000762939	
7.38342	-0.358887	0.00137329	
7.38525	-0.358887	0.000457764	
7.38586	-0.358887	0.000305176	
7.38556	-0.359192	0.000152588	
7.38586	-0.359497	0.000305176	
7.38617	-0.359192	0.000152588	
7.38556	-0.358887	0.000305176	
7.38586	-0.358887	0.000305176	
7.38586	-0.359802	0.000610352	
7.38556	-0.358582	-0.000305176	
7.38586	-0.358887	0.00213623	
7.38861	-0.359192	0.00106812	
7.39075	-0.359802	0.000457764	
7.39075	-0.358887	0.000457764	
7.39044	-0.358887	0.000762939	
7.39044	-0.359192	0.00106812	
7.39105	-0.358887	0	
7.39105	-0.359497	-0.000305176	
7.39105	-0.358887	0	
7.39075	-0.358887	-0.000762939	
7.39075	-0.358887	0.0012207	
7.3938	-0.359497	0.000915527	
7.39624	-0.358582	0.000305176	
7.39594	-0.358276	0.000915527	
7.39532	-0.359192	0.000305176	
7.39532	-0.358276	0.000762939	
7.39563	-0.359192	0.000305176	
7.39594	-0.359192	0.000457764	
7.39563	-0.358887	0.000152588	
7.39471	-0.359192	-0.000762939	
7.39563	-0.358887	0.000457764	
7.39563	-0.359192	0	
7.39899	-0.359192	0.000305176	
7.3996	-0.358887	0	
7.40051	-0.359192	0.000152588	
7.40051	-0.358887	-0.000152588	
7.40051	-0.359192	0.000610352	
7.40051	-0.358887	0.000915527	
7.40051	-0.358887	0.00106812	
7.40021	-0.359192	-0.000915527	
7.40021	-0.358887	0.00152588	
7.40112	-0.359192	0.000305176	
7.40082	-0.359192	0.000762939	
7.40387	-0.358582	0	
7.40509	-0.359192	0.000457764	
7.40509	-0.358887	0.000457764	
7.4057	-0.358887	0.000305176	
7.4057	-0.355835	0.000457764	
7.40417	-0.354309	0.000915527	
7.40509	-0.354004	-0.000305176	
7.40601	-0.353699	0.00228882	
7.4054	-0.354309	0.000610352	
7.40601	-0.354614	0.000610352	
7.4057	-0.354004	0.000610352	
7.40875	-0.354309	0.000305176	
7.40967	-0.354004	0.000762939	
7.40997	-0.354309	-0.000152588	
7.41028	-0.353699	-0.000305176	
7.41058	-0.354004	0.000152588	
7.41058	-0.353394	-0.000457764	
7.41028	-0.351868	0.000915527	
7.41058	-0.350342	0.000610352	
7.41058	-0.349731	0.000305176	
7.41028	-0.349121	0.000305176	
7.41089	-0.349426	0.000457764	
7.41333	-0.349121	0.000305176	
7.41486	-0.348816	0.000305176	
7.41547	-0.349426	0.000610352	
7.41577	-0.346375	0.000305176	
7.41577	-0.343933	-0.00106812	
7.41547	-0.344543	0.00106812	
7.41547	-0.344238	-0.000152588	
7.41547	-0.344238	0.000305176	
7.41608	-0.344543	0.000152588	
7.41486	-0.343933	0	
7.41608	-0.341492	-0.000152588	
7.4176	-0.339966	0.000457764	
7.42004	-0.339355	0.00106812	
7.41974	-0.338745	0.000915527	
7.42035	-0.339661	-0.000457764	
7.42065	-0.339355	0.00152588	
7.42065	-0.335999	0.000152588	
7.42035	-0.334778	0.000305176	
7.42035	-0.334167	0	
7.42004	-0.334473	0.000152588	
7.42035	-0.335083	0.000457764	
7.42096	-0.331421	0.000152588	
7.4234	-0.3302	0.000305176	
7.42493	-0.32959	0.000762939	
7.42462	-0.32959	-0.000457764	
7.42493	-0.32959	0.00228882	
7.42462	-0.326843	0.000457764	
7.42523	-0.324402	0.000457764	
7.42523	-0.324402	0.000762939	
7.42493	-0.324402	0.000305176	
7.42554	-0.321045	0.000762939	
7.42523	-0.320129	0.000305176	
7.42493	-0.319214	-0.000152588	
7.42493	-0.319824	-0.000457764	
7.42767	-0.317078	-0.000915527	
7.4292	-0.315247	0.0012207	
7.42981	-0.314636	0.000305176	
7.43011	-0.312195	0.000305176	
7.4295	-0.310669	0.000610352	
7.43011	-0.310364	0.000457764	
7.43042	-0.309753	0.000457764	
7.4292	-0.307312	0.000152588	
7.4295	-0.304871	0.000457764	
7.43042	-0.305786	0.000305176	
7.42981	-0.302124	-0.00137329	
7.43042	-0.300293	0.000457764	
7.43317	-0.299683	0	
7.43469	-0.296936	0	
7.4353	-0.29541	0.000305176	
7.435	-0.295715	0	
7.43469	-0.292969	0	
7.435	-0.291138	0.000915527	
7.43469	-0.290527	0.000915527	
7.43439	-0.287476	0.00137329	
7.43469	-0.286255	-0.0012207	
7.43469	-0.285339	0.00183105	
7.4353	-0.282898	0.000457764	
7.43835	-0.280457	0.000610352	
7.43958	-0.278015	0.000152588	
7.43896	-0.275574	0.000305176	
7.44019	-0.275879	0	
7.43927	-0.272522	0.000152588	
7.44019	-0.271606	0.000305176	
7.43988	-0.267639	0.000610352	
7.43927	-0.266113	-0.000457764	
7.44019	-0.265503	0.00244141	
7.44019	-0.262756	0.000762939	
7.43927	-0.26062	0.000762939	
7.43988	-0.257263	0.000915527	
7.44202	-0.256042	0.000457764	
7.44446	-0.252991	0.000457764	
7.44446	-0.250854	0.000457764	
7.44446	-0.250854	-0.000457764	
7.44476	-0.247498	-0.000457764	
7.44415	-0.246582	-0.000610352	
7.44446	-0.243225	0.00137329	
7.44537	-0.241394	0.000457764	
7.44507	-0.238037	0.000305176	
7.44446	-0.235901	0.000610352	
7.44446	-0.233459	0.000457764	
7.44415	-0.231628	0.000762939	
7.44812	-0.227966	0.000305176	
7.44904	-0.227356	0.000610352	
7.44965	-0.224304	0.000305176	
7.45026	-0.222473	-0.000762939	
7.44995	-0.218811	0.000457764	
7.44995	-0.21698	0.000305176	
7.44934	-0.213623	0.000152588	
7.44965	-0.212097	0.000305176	
7.44965	-0.20874	0.000305176	
7.45026	-0.20752	0.000152588	
7.44904	-0.204163	0.000457764	
7.44965	-0.19989	0.0012207	
7.44965	-0.197449	0.00106812	
7.45209	-0.194397	-0.000610352	
7.45422	-0.192566	0.00167847	
7.45422	-0.188904	0.000457764	
7.45514	-0.187683	0.000610352	
7.45544	-0.184021	0.000152588	
7.45453	-0.1828	0.000152588	
7.45422	-0.179443	0.000305176	
7.45422	-0.174866	0.000305176	
7.45514	-0.173035	0.000305176	
7.45514	-0.169373	0.000610352	
7.45483	-0.167847	-0.000457764	
7.45453	-0.16449	0.00244141	
7.45697	-0.160828	0.000610352	
7.45941	-0.157776	0.000305176	
7.45911	-0.154419	0.000610352	
7.45972	-0.152893	0.000915527	
7.45911	-0.149536	0.000762939	
7.46033	-0.146179	0.000152588	
7.46002	-0.143433	-0.000457764	
7.46002	-0.140076	-0.000152588	
7.45911	-0.135803	-0.000915527	
7.46002	-0.133972	0.00106812	
7.45819	-0.13092	0.000152588	
7.45972	-0.128784	0.000305176	
7.46033	-0.125427	0.000457764	
7.46246	-0.12085	0.000305176	
7.4646	-0.118408	0.000305176	
7.4649	-0.115967	0.000152588	
7.4646	-0.111694	0.000457764	
7.46429	-0.109253	0.000305176	
7.46399	-0.105591	-0.000915527	
7.46429	-0.101013	0.000762939	
7.4646	-0.0994873	0.000305176	
7.46429	-0.0958252	0	
7.46429	-0.0915527	0.000610352	
7.4649	-0.0897217	0	
7.46521	-0.0857544	0	
7.46765	-0.0817871	0.000610352	
7.46887	-0.0802612	0.00137329	
7.46918	-0.0769043	0.00137329	
7.46918	-0.0717163	-0.00106812	
7.46918	-0.0668335	0.00137329	
7.46948	-0.0650024	0.000305176	
7.47009	-0.0619507	0.000457764	
7.46948	-0.0567627	0.000152588	
7.47009	-0.0552368	0.000305176	
7.46979	-0.0515747	0.000305176	
7.46918	-0.0473022	0.000305176	
7.46918	-0.0460815	0.000305176	
7.46918	-0.0418091	0.000762939	
7.47223	-0.0378418	-0.000457764	
7.47406	-0.0323486	0.00259399	
7.47345	-0.0302124	0.000610352	
7.47498	-0.0271606	0.000915527	
7.47437	-0.0231934	0.000457764	
7.47467	-0.0213623	0.000457764	
7.47467	-0.017395	0.0012207	
7.47498	-0.0128174	0	
7.47375	-0.00732422	-0.000610352	
7.47467	-0.00579834	-0.000152588	
7.47528	-0.00305176	-0.000915527	
7.47498	0.00152588	0.00152588	
7.47437	0.00335693	0.000152588	
7.47742	0.00671387	0.000152588	
7.47864	0.0109863	0.000610352	
7.47894	0.0158691	0.000762939	
7.47894	0.0183105	0.000762939	
7.47986	0.0219727	0	
7.47955	0.0259399	0.000457764	
7.47986	0.0311279	0.000457764	
7.47955	0.0326538	-0.000762939	
7.47894	0.0363159	0.000762939	
7.47925	0.0405884	0.000305176	
7.47894	0.0457764	0	
7.47986	0.0476074	0.000152588	
7.47955	0.0512695	0.000152588	
7.4826	0.055542	-0.000152588	
7.48383	0.057373	0.000305176	
7.48413	0.0610352	0.00106812	
7.48474	0.0662231	0.00106812	
7.48413	0.0708008	-0.00106812	
7.48413	0.0723267	0.00198364	
7.48444	0.0762939	0.000305176	
7.48413	0.0796509	0.000457764	
7.48444	0.0848389	0.000305176	
7.48474	0.0860596	0.000305176	
7.48474	0.0897217	0.000457764	
7.48413	0.093689	0.000305176	
7.48413	0.0994873	0.000305176	
7.48749	0.100708	0.000610352	
7.48901	0.104065	-0.000610352	
7.48901	0.108948	0.00259399	
7.48932	0.111084	0.000762939	
7.48901	0.114441	0.000457764	
7.48932	0.118713	0.000762939	
7.48932	0.123291	0.000610352	
7.48932	0.126038	0.000610352	
7.48962	0.128784	0.000152588	
7.48962	0.133667	-0.000457764	
7.48932	0.138245	-0.000152588	
7.48932	0.139771	-0.000457764	
7.48962	0.143738	0.0012207	
7.49023	0.148315	0.000305176	
7.49176	0.150146	0.000152588	
7.49329	0.153503	0.000762939	
7.49512	0.158081	0.000457764	
7.49512	0.162048	0.000610352	
7.49512	0.164795	0.000152588	
7.49451	0.167847	0.000457764	
7.4942	0.172729	0.000457764	
7.49451	0.174561	-0.00106812	
7.49481	0.177307	0	
7.49451	0.18219	0	
7.49451	0.187073	0.000457764	
7.4939	0.188599	0	
7.49512	0.192261	0.000152588	
7.49695	0.197144	0	
7.49847	0.198975	0.000610352	
7.49878	0.202637	0.00137329	
7.5	0.207825	0.00106812	
7.49939	0.20874	-0.000610352	
7.49939	0.212708	0.00152588	
7.49908	0.216675	0.000152588	
7.49908	0.219116	0.000762939	
7.49939	0.222168	0.000152588	
7.49969	0.22644	0.000305176	
7.49939	0.228882	0.000305176	
7.49939	0.232239	0.000152588	
7.49908	0.236816	0.000457764	
7.49939	0.238647	0.000305176	
7.50183	0.24231	-0.000762939	
7.50336	0.245972	0.00259399	
7.50397	0.247498	0.000457764	
7.50488	0.251465	0.000762939	
7.50366	0.256042	0.000152588	
7.50305	0.257874	0.000457764	
7.50427	0.26123	0.000610352	
7.50397	0.265503	0.000305176	
7.50397	0.267639	-0.000305176	
7.50427	0.270996	-0.000152588	
7.50397	0.275269	-0.000457764	
7.50397	0.27771	0.0012207	
7.50366	0.280457	0.000457764	
7.50397	0.282288	0.000305176	
7.50641	0.286255	0.000762939	
7.50916	0.290833	0.000457764	
7.50854	0.292053	0.000457764	
7.50946	0.295105	0.000457764	
7.50916	0.299988	0.000457764	
7.50885	0.302734	0.000305176	
7.50854	0.305176	-0.000915527	
7.50977	0.306702	0.000762939	
7.50977	0.309753	-0.000152588	
7.50916	0.314331	0.000610352	
7.50977	0.316772	-0.000152588	
7.50916	0.319824	0	
7.50916	0.321655	0.000152588	
7.50854	0.325012	0.000152588	
7.51221	0.326843	0.00137329	
7.51343	0.329895	0.00152588	
7.51373	0.333862	-0.000610352	
7.51404	0.336304	0.00152588	
7.51404	0.340271	0.000305176	
7.51434	0.340881	0.000457764	
7.51373	0.345154	0.000305176	
7.51404	0.346069	0.000152588	
7.51404	0.349426	0.000457764	
7.51434	0.350342	0	
7.51434	0.354309	0.000152588	
7.51373	0.358887	0.000457764	
7.51404	0.361328	-0.000610352	
7.51465	0.364685	0.00198364	
7.51709	0.36499	0.000915527	
7.51892	0.368652	0.000762939	
7.51801	0.370789	0.000762939	
7.51862	0.373535	0.000305176	
7.51892	0.375061	0.000915527	
7.51862	0.379028	0.000305176	
7.51862	0.380859	-0.000457764	
7.51862	0.383606	-0.000152588	
7.51953	0.385742	-0.000762939	
7.51862	0.389099	0.00106812	
7.51892	0.390625	0.000457764	
7.51923	0.393066	0	
7.51953	0.395203	0.000915527	
7.51892	0.397949	0.000610352	
7.51953	0.39978	0.000305176	
7.52197	0.400696	0.000305176	
7.5238	0.402832	0.000152588	
7.5235	0.404663	0.000152588	
7.52411	0.408325	0.000152588	
7.5235	0.412292	0.000152588	
7.5238	0.415039	0.000152588	
7.5238	0.418396	-0.000152588	
7.5235	0.419922	0.000305176	
7.52319	0.419922	0	
7.5235	0.422974	0.000152588	
7.5235	0.4245	0.000457764	
7.52319	0.427856	0.000762939	
7.5238	0.429688	0.000457764	
7.52441	0.429993	0.000152588	
7.52686	0.432129	0.0012207	
7.52869	0.434875	0.000152588	
7.52899	0.437622	0.000762939	
7.52869	0.439453	0.000152588	
7.52869	0.439453	0.000152588	
7.52899	0.442505	0.000152588	
7.52838	0.444336	0.000457764	
7.5293	0.447083	0.000152588	
7.52838	0.448608	-0.000152588	
7.52808	0.449829	0.000457764	
7.52869	0.452881	0.00183105	
7.52869	0.453491	0.000762939	
7.52869	0.455017	0.000457764	
7.52869	0.458069	0.000762939	
7.52899	0.458984	0.000610352	
7.53143	0.458984	0.000915527	
7.53265	0.462036	0.000152588	
7.53357	0.464172	-0.000152588	
7.53357	0.464478	-0.00106812	
7.53357	0.467529	0.000305176	
7.53387	0.468445	0.000457764	
7.53326	0.469055	0.000457764	
7.53418	0.46936	0.000152588	
7.53357	0.472107	0.000305176	
7.53387	0.472412	0.000610352	
7.53418	0.473633	0.000152588	
7.53418	0.476074	0.000305176	
7.53357	0.478516	0.000457764	
7.53326	0.477905	-0.000152588	
7.53357	0.478821	-0.000152588	
7.53693	0.481262	0.000152588	
7.53845	0.482483	-0.000152588	
7.53815	0.484009	0.000305176	
7.53876	0.483398	0.000152588	
7.53906	0.486755	0	
7.53937	0.488586	-0.000152588	
7.53784	0.488281	0.000305176	
7.53815	0.488586	0.00106812	
7.53906	0.491638	0.000457764	
7.53906	0.492249	0.000152588	
7.53815	0.493469	0.000915527	
7.53845	0.493164	0	
7.53876	0.493164	0.000915527	
7.53876	0.496521	0	
7.53967	0.498047	0.000305176	
7.5412	0.498047	0.000457764	
7.54211	0.498047	0.000152588	
7.54333	0.498047	0.000305176	
7.54303	0.501099	0	
7.54364	0.502319	0.000457764	
7.54333	0.50293	0.00167847	
7.54395	0.50293	0.000457764	
7.54395	0.502319	0.000457764	
7.54333	0.503235	0.000457764	
7.54333	0.505676	0.000762939	
7.54395	0.507813	0.000762939	
7.54395	0.507202	0.000152588	
7.54364	0.507507	-0.000457764	
7.54395	0.507507	-0.000762939	
7.54333	0.507813	0.000305176	
7.54333	0.508423	0.000762939	
7.54639	0.511169	0.000305176	
7.54791	0.512695	0.000305176	
7.54791	0.513	0.000762939	
7.54913	0.513	0.000610352	
7.54822	0.513	0.000457764	
7.54822	0.513306	0	
7.54791	0.513611	0.000457764	
7.54852	0.512695	0	
7.54883	0.513	0.000305176	
7.54883	0.513	0.000152588	
7.54822	0.516052	0	
7.54944	0.517883	0.000457764	
7.54822	0.518188	0.000152588	
7.54791	0.517273	0.000305176	
7.54883	0.517578	-0.000152588	
7.54913	0.517273	0.000915527	
7.55066	0.517883	0.0012207	
7.5531	0.517883	0.000610352	
7.55371	0.517883	0.000457764	
7.55341	0.517883	0.00106812	
7.55371	0.518188	0.000457764	
7.5528	0.518188	0.000762939	
7.5528	0.518188	0.000152588	
7.55371	0.518494	0.000610352	
7.55402	0.518188	0.000305176	
7.55341	0.517883	0.000457764	
7.55341	0.517273	0.000610352	
7.5531	0.517883	-0.000457764	
7.5531	0.518188	0.000610352	
7.55371	0.517883	0.00183105	
7.55493	0.517883	0.000610352	
7.5531	0.517578	0.000457764	
7.55585	0.518188	0.000610352	
7.55798	0.518188	0.000610352	
7.55829	0.517273	0.000762939	
7.5589	0.517883	0.000305176	
7.55798	0.517578	0	
7.55859	0.517578	-0.00106812	
7.55859	0.517273	0.000457764	
7.55768	0.517883	0.000762939	
7.55859	0.518494	0.000152588	
7.55859	0.517883	0.000152588	
7.55829	0.517578	0.000762939	
7.5589	0.517578	0.000305176	
7.55798	0.518188	0.000915527	
7.5589	0.517578	0.000152588	
7.55859	0.517883	0.000915527	
7.5592	0.514832	-0.000152588	
7.56012	0.513306	0.000305176	
7.56287	0.51239	0	
7.56256	0.513306	0	
7.56287	0.512695	0.000305176	
7.56378	0.512695	0.000305176	
7.56348	0.513306	0.000457764	
7.56348	0.51239	0	
7.56287	0.512695	0.000457764	
7.56409	0.512695	0.0012207	
7.56348	0.512085	0.000762939	
7.56378	0.509644	0.000305176	
7.56317	0.508728	0.0012207	
7.56317	0.508423	0.000610352	
7.56378	0.507813	0.000457764	
7.56348	0.507507	0	
7.56317	0.508423	0.000152588	
7.56592	0.507813	0.000305176	
7.56744	0.508118	0	
7.56866	0.504761	0.000762939	
7.56836	0.50354	0.000152588	
7.56897	0.50293	0.000305176	
7.56836	0.502319	0.00137329	
7.56836	0.503235	0.000610352	
7.56775	0.502014	0.000610352	
7.56805	0.500183	0.000762939	
7.56836	0.498352	0.000457764	
7.56775	0.498657	0.000762939	
7.56866	0.498047	0.000305176	
7.56836	0.498352	0	
7.56775	0.498962	-0.000762939	
7.56836	0.494385	0.000457764	
7.56836	0.493469	0.000915527	
7.56836	0.492554	0.000305176	
7.57172	0.493164	0.000152588	
7.57263	0.493469	0.000762939	
7.57294	0.493164	0.000610352	
7.57324	0.490112	0.000762939	
7.57263	0.488892	-0.000152588	
7.57233	0.488892	0.000152588	
7.57294	0.487671	-0.000152588	
7.57294	0.485535	0.000152588	
7.57263	0.483398	0.000152588	
7.57324	0.482788	0.000152588	
7.57355	0.482788	0.000305176	
7.57263	0.482788	-0.000152588	
7.57324	0.480042	-0.000152588	
7.57324	0.479126	-0.000152588	
7.57324	0.477905	0.000152588	
7.57324	0.477905	0.000915527	
7.57324	0.475464	0.000915527	
7.57568	0.473328	0.000305176	
7.57751	0.473633	0.00106812	
7.57843	0.473938	0.000457764	
7.57874	0.473022	0.000305176	
7.57813	0.470886	0	
7.57782	0.46875	0	
7.57813	0.46875	0.000457764	
7.57782	0.46814	0.000762939	
7.57904	0.465393	0.000457764	
7.57843	0.464478	0	
7.57813	0.464478	0.000457764	
7.57813	0.46051	0.00167847	
7.57843	0.4599	0.00106812	
7.57874	0.45929	0.000915527	
7.57782	0.4599	0.000762939	
7.57843	0.456238	0.000457764	
7.57782	0.454407	0.000915527	
7.57843	0.454712	0.000152588	
7.58026	0.454102	-0.000457764	
7.58148	0.450745	-0.000305176	
7.5824	0.449524	0.000457764	
7.58209	0.448303	0.000915527	
7.58209	0.445862	0.000457764	
7.58301	0.444641	0.000152588	
7.58301	0.443726	0.000457764	
7.58209	0.444641	0.000305176	
7.5824	0.441284	0.000762939	
7.5824	0.439453	0	
7.58209	0.440063	0.000305176	
7.58209	0.436096	0	
7.58179	0.435486	-0.000152588	
7.5827	0.43457	0.000305176	
7.58209	0.431213	0.000152588	
7.5827	0.430603	0.000152588	
7.58179	0.429688	-0.000152588	
7.5827	0.428772	0.000152588	
7.58514	0.426025	0.000152588	
7.58667	0.425415	0.000457764	
7.58789	0.42572	0.00137329	
7.58789	0.421753	0.000457764	
7.58759	0.419922	0.000457764	
7.58728	0.420227	0.00106812	
7.58728	0.41626	0.000457764	
7.58789	0.415344	0.000305176	
7.58759	0.414734	0.000610352	
7.58728	0.411987	0.000305176	
7.58759	0.410767	0	
7.58759	0.409546	0.000915527	
7.5882	0.406799	0.000610352	
7.5882	0.405273	-0.000305176	
7.58789	0.404358	0.000152588	
7.58667	0.401917	0.00137329	
7.58698	0.400696	0.000762939	
7.58728	0.400085	0.000610352	
7.58698	0.396729	0.000457764	
7.58972	0.395813	0.000762939	
7.59277	0.395203	0.000762939	
7.59277	0.392456	0.000610352	
7.59216	0.391235	-0.000152588	
7.59216	0.389709	-0.000610352	
7.59277	0.387268	0.000152588	
7.59277	0.386047	0.000915527	
7.59277	0.385437	0.000457764	
7.59216	0.382385	0.000152588	
7.59216	0.381165	0.000610352	
7.59277	0.378418	0.000305176	
7.59216	0.376282	0.000457764	
7.59277	0.376282	0	
7.59277	0.372925	0.000610352	
7.59155	0.371399	-0.000152588	
7.59186	0.370483	0.000152588	
7.59155	0.367432	0.000152588	
7.59247	0.366516	0.000305176	
7.59277	0.365906	0.000305176	
7.59521	0.363464	-0.000152588	
7.59674	0.361633	0	
7.59766	0.360413	0.000305176	
7.59766	0.357666	0.000457764	
7.59766	0.356445	0.00152588	
7.59735	0.353394	0.000915527	
7.59766	0.351257	0.000457764	
7.59705	0.351257	0.000915527	
7.59644	0.348206	0.000915527	
7.59735	0.345764	0.000610352	
7.59705	0.34668	0.000152588	
7.59674	0.342712	0.000457764	
7.59796	0.342102	0.000610352	
7.59766	0.340881	0.000762939	
7.59735	0.338135	0.000457764	
7.59766	0.336609	-0.000152588	
7.59705	0.333557	0.000610352	
7.59644	0.332031	0.00183105	
7.59735	0.331421	0.000457764	
7.59735	0.328064	0.000457764	
7.59949	0.327148	0.000915527	
7.60162	0.326843	0.000762939	
7.60223	0.324402	0.000762939	
7.60223	0.322876	0.000457764	
7.60254	0.32135	-0.000457764	
7.60254	0.317993	-0.0012207	
7.60254	0.316772	0.000305176	
7.60223	0.313721	0.000915527	
7.60254	0.31189	0	
7.60315	0.311584	0.000762939	
7.60223	0.308533	0.000610352	
7.60223	0.307617	0.000610352	
7.60223	0.306702	0.000610352	
7.60193	0.30426	0.000457764	
7.60162	0.301208	0.000457764	
7.60223	0.299072	0	
7.60193	0.297546	0	
7.60254	0.296326	0.000152588	
7.60254	0.294189	0.000152588	
7.60223	0.292053	0	
7.60498	0.291748	0	
7.60681	0.289001	0.000457764	
7.60681	0.287476	-0.000152588	
7.60712	0.284119	0.000305176	
7.60742	0.282593	0.000915527	
7.6062	0.282593	0.000915527	
7.60742	0.278931	0.000457764	
7.60773	0.278015	0.00106812	
7.60742	0.27771	0.000305176	
7.60742	0.275269	0.000762939	
7.60742	0.272827	0	
7.60742	0.273132	0.000305176	
7.60651	0.26947	0.000305176	
7.60712	0.26825	0.000610352	
7.60773	0.264587	0.000610352	
7.60742	0.262451	-0.000152588	
7.60742	0.262146	0.000457764	
7.60651	0.259705	0.00183105	
7.60681	0.258179	0.000610352	
7.60773	0.258179	0.000610352	
7.60742	0.254517	0.000610352	
7.61017	0.253906	0.000610352	
7.61169	0.252075	0.000457764	
7.6123	0.250549	0.000610352	
7.612	0.249023	-0.000457764	
7.612	0.245361	-0.00106812	
7.61169	0.24353	0.000305176	
7.6123	0.242615	0.000915527	
7.612	0.240173	0.000305176	
7.612	0.238953	0	
7.6123	0.237732	0.000457764	
7.6123	0.235901	0.000457764	
7.61261	0.234375	0.000457764	
7.61169	0.233459	0.000305176	
7.6123	0.230103	0.000152588	
7.612	0.227966	-0.000152588	
7.61169	0.228882	-0.000152588	
7.6123	0.226135	0.000305176	
7.61169	0.223694	0	
7.61169	0.223694	0.000152588	
7.61261	0.220642	0	
7.6123	0.218506	0.000305176	
7.6123	0.218506	0	
7.61505	0.216064	0.000305176	
7.61627	0.213928	0.00106812	
7.61719	0.213318	0.000305176	
7.61749	0.210571	0.000305176	
7.61719	0.209045	0.000915527	
7.61749	0.205688	0.000457764	
7.61749	0.204773	0.000457764	
7.61658	0.203552	-0.000152588	
7.61688	0.201111	0.000610352	
7.61719	0.19928	0.000457764	
7.61749	0.199585	0.000457764	
7.61719	0.196228	0.000457764	
7.61688	0.194397	-0.000152588	
7.61719	0.193787	0.000610352	
7.61719	0.190735	0.00183105	
7.61719	0.189514	0.000457764	
7.61627	0.188904	0.000305176	
7.61688	0.188599	0.000915527	
7.61688	0.186462	0.000762939	
7.61749	0.184937	0.000915527	
7.61658	0.184021	0.000457764	
7.61749	0.181274	-0.000457764	
7.61719	0.179138	-0.000762939	
7.61963	0.178528	0.000152588	
7.62146	0.176392	0.000915527	
7.62146	0.174255	0.000305176	
7.62146	0.173645	0.000152588	
7.62268	0.171814	0.000762939	
7.62115	0.169983	0.000762939	
7.62268	0.169067	0.000305176	
7.62207	0.166931	0.000610352	
7.62207	0.164795	0.000457764	
7.62207	0.163879	0.000152588	
7.62177	0.161133	0	
7.62177	0.159912	0.000152588	
7.62207	0.159607	0	
7.62238	0.159302	0.000152588	
7.62238	0.15686	0.000305176	
7.62238	0.155334	-0.000152588	
7.62177	0.155334	0	
7.62238	0.152283	0.000305176	
7.62207	0.151062	0.00152588	
7.62207	0.150146	0.000610352	
7.62207	0.1474	0	
7.62238	0.145874	0.000915527	
7.62268	0.145264	0.000457764	
7.62238	0.144958	0.000762939	
7.62451	0.142822	0.000457764	
7.62604	0.140076	0.000152588	
7.62726	0.139771	0.000152588	
7.62665	0.137634	0.000610352	
7.62695	0.136108	0.000152588	
7.62695	0.135193	-0.000305176	
7.62665	0.132141	0.000457764	
7.62695	0.13092	0.00152588	
7.62695	0.13031	0.000762939	
7.62665	0.13031	0.000457764	
7.62634	0.128479	0.000457764	
7.62695	0.125122	0.000610352	
7.62726	0.126038	0.000915527	
7.62726	0.125122	0.000457764	
7.62726	0.122986	0	
7.62604	0.120544	-0.0012207	
7.62634	0.12085	0	
7.62695	0.118103	0.000915527	
7.62726	0.115967	0.000457764	
7.62756	0.115356	0.000305176	
7.62756	0.115356	0.000457764	
7.62604	0.11261	0.000610352	
7.62665	0.111084	0.000305176	
7.62726	0.110474	0.000152588	
7.62604	0.110779	0.000305176	
7.6297	0.107727	0	
7.63184	0.105591	-0.000152588	
7.63245	0.105896	0.000305176	
7.63245	0.105591	0.000152588	
7.63214	0.102844	0.000457764	
7.63245	0.101624	0.000305176	
7.63184	0.100708	0.000457764	
7.63214	0.101013	0	
7.63214	0.0985718	0.000457764	
7.63245	0.0967407	0.00137329	
7.63123	0.0964355	0.000610352	
7.63184	0.0958252	0.000152588	
7.63184	0.0933838	0.00106812	
7.63184	0.0915527	0.000457764	
7.63214	0.0912476	0.000457764	
7.63245	0.0909424	0.000457764	
7.63184	0.088501	0.000152588	
7.63214	0.0872803	0.000152588	
7.63092	0.0869751	0.000305176	
7.63214	0.0860596	0.000762939	
7.63092	0.0830078	-0.000152588	
7.63184	0.0814819	0.000457764	
7.63184	0.0814819	0.00152588	
7.63184	0.0814819	0.000610352	
7.63184	0.0796509	0.000762939	
7.63184	0.0778198	0.000457764	
7.63275	0.0772095	0.000610352	
7.63458	0.0769043	0.000762939	
7.63611	0.0747681	0.000457764	
7.63672	0.0726318	-0.000610352	
7.63672	0.0723267	-0.00106812	
7.63733	0.0723267	0.000305176	
7.63702	0.0720215	0.00106812	
7.63733	0.0698853	0	
7.63702	0.0674438	0.000152588	
7.63672	0.067749	0.000610352	
7.63672	0.0674438	0.000457764	
7.63733	0.0643921	0.000457764	
7.63672	0.062561	0	
7.63702	0.062561	0.000457764	
7.63702	0.062561	-0.000152588	
7.63672	0.062561	0	
7.63702	0.0595093	0.000152588	
7.63733	0.0579834	0	
7.63672	0.0576782	-0.000152588	
7.63794	0.057373	0.000457764	
7.63733	0.0546265	0	
7.63702	0.0521851	0.000152588	
7.63763	0.0531006	0.000305176	
7.63672	0.0527954	0.00137329	
7.63672	0.0518799	0.000610352	
7.63702	0.0497437	0.000457764	
7.63702	0.0488281	0.00106812	
7.63672	0.0476074	0.000305176	
7.63702	0.0473022	0.000610352	
7.63702	0.0476074	0.000152588	
7.63947	0.0445557	0.000152588	
7.64191	0.0430298	0.000305176	
7.6416	0.0424194	0.000305176	
7.64221	0.0427246	0.000305176	
7.64191	0.0430298	-0.000305176	
7.64191	0.039978	0.000762939	
7.64191	0.0384521	0.00183105	
7.64221	0.0384521	0.000305176	
7.64191	0.038147	0.000457764	
7.6416	0.0378418	0.000762939	
7.6416	0.0354004	0.000915527	
7.6416	0.0332642	0.000762939	
7.64099	0.0335693	0.000305176	
7.64099	0.0326538	-0.000152588	
7.64191	0.0332642	-0.00106812	
7.6413	0.0323486	0.000305176	
7.64191	0.0302124	0.000915527	
7.6416	0.0280762	0.000305176	
7.64191	0.027771	0	
7.64221	0.027771	0.000457764	
7.64221	0.0283813	0.000457764	
7.64221	0.0256348	0.000457764	
7.64252	0.0244141	0.000305176	
7.64191	0.0234985	0.000457764	
7.64191	0.0231934	-0.000152588	
7.6413	0.0228882	0.000152588	
7.64282	0.0234985	0.000305176	
7.64221	0.0201416	0.000152588	
7.64191	0.0186157	0.000457764	
7.6413	0.0186157	0.000152588	
7.6416	0.0183105	0.000152588	
7.64435	0.0186157	0.000152588	
7.64648	0.0149536	0.000305176	
7.64648	0.0137329	0.00152588	
7.6474	0.0134277	0.000457764	
7.64679	0.0137329	0.000152588	
7.64648	0.0128174	0.0012207	
7.64679	0.0131226	0.000610352	
7.64801	0.010376	0.000457764	
7.64587	0.0088501	0.000152588	
7.64771	0.00854492	0.000457764	
7.64679	0.00823975	-0.000305176	
7.64679	0.00823975	0.000610352	
7.64709	0.00854492	0	
7.64771	0.00488281	-0.000152588	
7.64679	0.00396729	0.000457764	
7.64801	0.00335693	0.00137329	
7.64679	0.00396729	0.000762939	
7.64648	0.00396729	0.000457764	
7.64679	0.00335693	0.000305176	
7.6474	0.000610352	0.000610352	
7.64709	-0.000610352	0.0012207	
7.6474	-0.0012207	0.000152588	
7.64709	-0.00152588	-0.000610352	
7.64709	-0.0012207	-0.000762939	
7.64709	-0.00152588	0.000305176	
7.64709	-0.000915527	0.000762939	
7.64679	-0.00396729	0.000457764	
7.64679	-0.00579834	0.000305176	
7.64648	-0.00610352	0.000610352	
7.6474	-0.00579834	0.000457764	
7.64618	-0.00610352	0.000457764	
7.64648	-0.00579834	0.000152588	
7.6474	-0.0088501	0.000152588	
7.64923	-0.010376	-0.000152588	
7.65198	-0.0106812	0	
7.65167	-0.0109863	0.000152588	
7.65167	-0.0109863	0.000152588	
7.65137	-0.0115967	0	
7.65137	-0.0109863	0.000305176	
7.65076	-0.0143433	0.000152588	
7.65137	-0.015564	-0.000152588	
7.65137	-0.0161743	0	
7.65137	-0.0158691	0.00106812	
7.65167	-0.0152588	0.000610352	
7.65167	-0.015564	0.000305176	
7.65198	-0.0158691	0.000915527	
7.65198	-0.0186157	0.000305176	
7.65167	-0.0210571	0.000457764	
7.65198	-0.0210571	0.000152588	
7.65167	-0.020752	0.000305176	
7.65228	-0.0213623	0.000305176	
7.65167	-0.0210571	0.000762939	
7.65167	-0.0216675	0.000457764	
7.65167	-0.0244141	-0.000152588	
7.65167	-0.0256348	0.000610352	
7.65137	-0.0262451	0.00137329	
7.65167	-0.0262451	0.000610352	
7.65167	-0.0259399	0.000457764	
7.65198	-0.0256348	0.000457764	
7.65167	-0.0259399	0.000762939	
7.65137	-0.0259399	0.000915527	
7.65167	-0.0289917	0.000305176	
7.65167	-0.0299072	-0.000305176	
7.65198	-0.0308228	-0.000915527	
7.65137	-0.0305176	0	
7.65198	-0.0302124	0.00106812	
7.65167	-0.0308228	0.000152588	
7.65137	-0.0305176	0.000305176	
7.65228	-0.0311279	0.000457764	
7.65228	-0.0338745	0.000305176	
7.65442	-0.0357056	0.000305176	
7.65625	-0.0360107	0.000305176	
7.65686	-0.0354004	0.000762939	
7.65717	-0.0363159	-0.000305176	
7.65686	-0.0354004	0.000457764	
7.65656	-0.0357056	0.000305176	
7.65717	-0.0387573	0.000152588	
7.65625	-0.039978	0.000305176	
7.65717	-0.0411987	0	
7.65656	-0.0405884	0	
7.65625	-0.0405884	0.000305176	
7.65656	-0.0402832	0.000305176	
7.65625	-0.0402832	0.00106812	
7.65625	-0.0405884	0.000457764	
7.65686	-0.0408936	0.000457764	
7.65656	-0.043335	0.00106812	
7.65717	-0.0454712	0.000762939	
7.65686	-0.045166	0.000610352	
7.65656	-0.045166	0.000152588	
7.65656	-0.0457764	0.000152588	
7.65717	-0.0445557	0.000610352	
7.65686	-0.045166	0.000762939	
7.65594	-0.0460815	0.000305176	
7.65625	-0.0482178	-0.000152588	
7.65686	-0.0500488	0.000762939	
7.65717	-0.0500488	0.00167847	
7.65686	-0.0497437	0.000610352	
7.65625	-0.050354	0.000610352	
7.65686	-0.0497437	0.000915527	
7.65656	-0.050354	0.000610352	
7.65625	-0.0491333	0.000915527	
7.65656	-0.0506592	0.000305176	
7.65717	-0.0524902	-0.000305176	
7.65625	-0.0546265	-0.00106812	
7.65625	-0.0552368	0	
7.65686	-0.055542	0.00106812	
7.65656	-0.055542	0.000305176	
7.65656	-0.0552368	0.000152588	
7.65686	-0.055542	0.000610352	
7.65625	-0.0552368	0.000610352	
7.659	-0.0579834	0.000152588	
7.66083	-0.0601196	0.000305176	
7.66113	-0.0601196	0.000152588	
7.66205	-0.0601196	-0.000152588	
7.66174	-0.0604248	0.000152588	
7.66022	-0.0604248	0.000610352	
7.66144	-0.0598145	0.000152588	
7.66113	-0.0601196	0.000152588	
7.66113	-0.0601196	0.000305176	
7.66144	-0.0634766	0	
7.66113	-0.0643921	0	
7.66113	-0.065918	0.000152588	
7.66144	-0.0650024	0.00152588	
7.66174	-0.0653076	0.000915527	
7.66113	-0.0643921	0.000305176	
7.66174	-0.0650024	0.00106812	
7.66205	-0.0646973	0.00106812	
7.66144	-0.0646973	0.000762939	
7.66144	-0.067749	0.000762939	
7.66174	-0.0701904	0.000305176	
7.66205	-0.0698853	0.000152588	
7.66174	-0.0698853	0.000915527	
7.66205	-0.0695801	0	
7.66083	-0.0704956	-0.000152588	
7.66113	-0.0701904	0.000457764	
7.66144	-0.0698853	0.00183105	
7.66205	-0.0695801	0.000610352	
7.66174	-0.0695801	0.000915527	
7.66113	-0.072937	0.000610352	
7.66174	-0.0744629	0.000610352	
7.66174	-0.0747681	0.000457764	
7.66083	-0.0750732	0.000915527	
7.66174	-0.0747681	-0.000305176	
7.66174	-0.0750732	-0.00106812	
7.66205	-0.0750732	0.000152588	
7.66113	-0.0747681	0.00106812	
7.66174	-0.0750732	0.000152588	
7.66205	-0.078125	0.000152588	
7.66144	-0.0793457	0.000610352	
7.66144	-0.0793457	0.000762939	
7.66235	-0.0790405	0.000457764	
7.66144	-0.0793457	0.000305176	
7.66235	-0.0796509	0.000457764	
7.66144	-0.0799561	0	
7.66083	-0.0799561	0.000152588	
7.66174	-0.0793457	0.000305176	
7.66205	-0.0823975	0.000152588	
7.66174	-0.0848389	0.000305176	
7.66388	-0.0848389	-0.000152588	
7.66541	-0.085144	0.000305176	
7.66724	-0.085144	-0.000152588	
7.66602	-0.0839233	0.000152588	
7.66632	-0.085144	0.0012207	
7.66632	-0.0845337	0.000762939	
7.66571	-0.0845337	0.000305176	
7.66602	-0.0836182	0.00106812	
7.66632	-0.0872803	0.000610352	
7.66663	-0.088501	0.000762939	
7.66632	-0.0894165	0.000152588	
7.66663	-0.0897217	0.000305176	
7.66632	-0.0894165	0.000610352	
7.66632	-0.0891113	0.000610352	
7.66663	-0.0897217	0	
7.66663	-0.090332	-0.000152588	
7.66632	-0.0900269	0.000610352	
7.66571	-0.0924683	0.00167847	
7.66632	-0.0939941	0.000915527	
7.66693	-0.0942993	0.000457764	
7.66571	-0.0939941	0.000457764	
7.66602	-0.0946045	0.000152588	
7.66632	-0.0939941	0.000762939	
7.66632	-0.0939941	0.000457764	
7.66632	-0.0942993	-0.000610352	
7.66632	-0.0949097	-0.0012207	
7.66602	-0.0964355	0.000305176	
7.66663	-0.098877	0.00106812	
7.66632	-0.0991821	0	
7.66602	-0.0997925	0.000457764	
7.66663	-0.0994873	0.000305176	
7.66632	-0.0991821	0.000915527	
7.66632	-0.0997925	0.000610352	
7.66632	-0.098877	0.000610352	
7.66602	-0.0997925	0.000762939	
7.66632	-0.102234	0	
7.66663	-0.10376	0.000152588	
7.66632	-0.10437	0.000305176	
7.66632	-0.10437	0.000305176	
7.66663	-0.10437	0.000152588	
7.66663	-0.104675	0.000305176	
7.66571	-0.104065	0.000762939	
7.66632	-0.104065	0.000152588	
7.66693	-0.10498	0.000152588	
7.66602	-0.104675	0.0012207	
7.66663	-0.107117	0.000762939	
7.66571	-0.109558	0.000610352	
7.66602	-0.109558	0.000915527	
7.66632	-0.109253	0.000762939	
7.66663	-0.109558	0.000915527	
7.66632	-0.109253	0.000305176	
7.66632	-0.110168	0.000152588	
7.66663	-0.108643	0.000305176	
7.66602	-0.108948	0.000457764	
7.66602	-0.112305	0.000610352	
7.66632	-0.113525	0	
7.66663	-0.113831	0.000457764	
7.66632	-0.114136	0.00152588	
7.66876	-0.113831	0.000457764	
7.67029	-0.113831	0.000610352	
7.6712	-0.113525	0.000915527	
7.67151	-0.113525	0.000305176	
7.67181	-0.114441	0.000915527	
7.6712	-0.117493	0.000457764	
7.6712	-0.118103	-0.000305176	
7.6709	-0.118713	-0.000915527	
7.67151	-0.119629	0.000152588	
7.6709	-0.119019	0.000762939	
7.6709	-0.118713	0	
7.6712	-0.118713	0	
7.6709	-0.119629	0.000457764	
7.67059	-0.119629	0.000762939	
7.6712	-0.12207	0.000152588	
7.67212	-0.123596	0.000457764	
7.6712	-0.123901	0.000305176	
7.6712	-0.124207	-0.000152588	
7.6712	-0.123901	0	
7.6709	-0.123596	0.000152588	
7.6712	-0.124207	0.000305176	
7.67181	-0.123901	0.000305176	
7.6712	-0.126038	0.000152588	
7.6712	-0.128784	0	
7.67151	-0.128784	0	
7.6709	-0.129089	0.000610352	
7.6712	-0.128479	0.00152588	
7.6709	-0.129089	0.000762939	
7.67151	-0.128784	0.000457764	
7.6712	-0.128784	0.00106812	
7.6712	-0.128784	0.000457764	
7.67151	-0.131836	0.000610352	
7.6712	-0.133362	0.000457764	
7.67181	-0.133972	0.000305176	
7.6709	-0.133667	0.000305176	
7.6709	-0.133667	0.000457764	
7.6712	-0.134277	0.000305176	
7.6712	-0.134583	0	
7.67059	-0.133667	0.000762939	
7.67181	-0.133972	0.00152588	
7.67151	-0.136719	0.000457764	
7.67059	-0.137939	0.000305176	
7.67151	-0.13855	0.000610352	
7.67181	-0.139465	0.000610352	
7.6709	-0.137939	0.000915527	
7.67151	-0.138855	0.000457764	
7.6712	-0.138855	-0.000305176	
7.67151	-0.13855	-0.00106812	
7.6709	-0.137939	0	
7.6712	-0.141602	0.0012207	
7.67151	-0.143127	0.000610352	
7.67151	-0.143127	0.000305176	
7.67181	-0.143433	0.000610352	
7.6709	-0.143433	0.000762939	
7.67151	-0.143433	0.000305176	
7.67151	-0.143738	0.000305176	
7.67151	-0.142517	0.000457764	
7.6712	-0.143738	-0.000152588	
7.67181	-0.146179	-0.000305176	
7.67151	-0.14801	0	
7.67181	-0.148621	0	
7.67151	-0.148315	0	
7.67181	-0.148315	0	
7.67151	-0.148315	-0.000152588	
7.6712	-0.148621	0.000457764	
7.6712	-0.148926	0.000305176	
7.67151	-0.148926	0.00137329	
7.6712	-0.151367	0.000915527	
7.6709	-0.152588	0.000305176	
7.6709	-0.153198	0.00152588	
7.67151	-0.152893	0.000305176	
7.67151	-0.153198	0.000610352	
7.6712	-0.153809	0.000152588	
7.67059	-0.152893	0.000305176	
7.67151	-0.153198	0.000305176	
7.6712	-0.152588	0.000305176	
7.6709	-0.15625	0.000152588	
7.67151	-0.157471	-0.000457764	
7.67151	-0.158386	0.000457764	
7.67212	-0.158081	0.00137329	
7.67426	-0.158081	0.000457764	
7.67548	-0.158081	0.000610352	
7.67578	-0.158386	0.000305176	
7.67609	-0.157471	0.000457764	
7.67639	-0.158081	0.000610352	
7.6767	-0.161133	0.000457764	
7.67609	-0.162048	0	
7.67639	-0.162659	-0.00106812	
7.67578	-0.162659	0.000152588	
7.67578	-0.162659	0.000610352	
7.67548	-0.162659	0.000457764	
7.67639	-0.162659	-0.000152588	
7.67609	-0.162659	0.000610352	
7.6767	-0.163269	0.000305176	
7.67609	-0.16571	0.000610352	
7.67639	-0.166931	0.000152588	
7.67609	-0.167236	0.000457764	
7.67578	-0.167542	-0.000152588	
7.67639	-0.167847	0	
7.67639	-0.167542	0.000305176	
7.67578	-0.167847	0.000152588	
7.67609	-0.167847	0.000305176	
7.67578	-0.167847	0	
7.677	-0.170898	-0.000152588	
7.6767	-0.172729	0	
7.6767	-0.172729	0.000152588	
7.67578	-0.172729	0.00106812	
7.67639	-0.172729	0.000610352	
7.67548	-0.173035	0.000152588	
7.67578	-0.172424	0.000762939	
7.67609	-0.17334	0.000457764	
7.67578	-0.176392	0.000610352	
7.67578	-0.177307	0.000152588	
7.6767	-0.177307	0.000152588	
7.67609	-0.178528	0.000457764	
7.67609	-0.177917	0.000457764	
7.67578	-0.177917	-0.000152588	
7.67639	-0.177917	-0.000305176	
7.67578	-0.177002	0.000915527	
7.67639	-0.177917	0.00167847	
7.67609	-0.180664	0.000610352	
7.67578	-0.18219	0.000915527	
7.67609	-0.182495	0.0012207	
7.67609	-0.18219	0.000457764	
7.67639	-0.183105	0.000915527	
7.67609	-0.181885	0.000610352	
7.67578	-0.182495	0	
7.67609	-0.182495	-0.0012207	
7.67578	-0.183105	0.000152588	
7.67609	-0.185547	0.000610352	
7.67609	-0.187378	0	
7.67609	-0.187378	0.000305176	
7.67609	-0.187378	0.000915527	
7.67578	-0.187378	0.000915527	
7.67639	-0.187378	0.000457764	
7.67639	-0.187378	0.000152588	
7.67639	-0.187683	0.000457764	
7.6767	-0.190125	0	
7.67609	-0.192261	0.000152588	
7.67731	-0.192566	0.000305176	
7.67639	-0.192261	0	
7.67639	-0.192261	-0.000152588	
7.67548	-0.192261	0.000152588	
7.67609	-0.192566	0	
7.67639	-0.192261	0.000305176	
7.67609	-0.193176	0.000305176	
7.67639	-0.195313	0.0012207	
7.67639	-0.196838	0.00106812	
7.67578	-0.197144	0.000152588	
7.67578	-0.196838	0.00106812	
7.67639	-0.197144	0.000305176	
7.67578	-0.196838	0.000610352	
7.67609	-0.198059	0.000305176	
7.6767	-0.196838	0	
7.67609	-0.197144	-0.000152588	
7.67609	-0.199585	0.000762939	
7.67609	-0.202332	0.000152588	
7.67639	-0.202026	-0.000152588	
7.67639	-0.202332	0.000610352	
7.67548	-0.202026	0.00152588	
7.67609	-0.202637	0.000915527	
7.67578	-0.202026	0.000457764	
7.677	-0.201721	0.000610352	
7.67548	-0.202026	0.000305176	
7.6767	-0.204773	0.0012207	
7.67639	-0.206909	0.000610352	
7.6767	-0.207214	-0.000152588	
7.67609	-0.20752	-0.00106812	
7.6767	-0.20752	0	
7.67548	-0.206909	0.0012207	
7.67578	-0.207214	0.000152588	
7.6767	-0.206909	0.000152588	
7.67609	-0.206909	0.000305176	
7.6767	-0.209656	0.000762939	
7.677	-0.211182	0.000305176	
7.67609	-0.212402	0	
7.67609	-0.212708	0.000457764	
7.67578	-0.211487	-0.000152588	
7.67548	-0.212097	0	
7.67578	-0.212097	0.000610352	
7.67578	-0.212097	-0.000152588	
7.67639	-0.212097	0	
7.6767	-0.215454	-0.000152588	
7.67609	-0.21698	0	
7.67609	-0.216675	0.000152588	
7.67639	-0.21698	0.000152588	
7.67578	-0.216675	0.00106812	
7.6767	-0.216675	0.000915527	
7.67609	-0.216675	0.000457764	
7.67578	-0.217285	0.00106812	
7.6767	-0.217285	0.000610352	
7.6767	-0.219727	0.000457764	
7.67578	-0.221252	0.000457764	
7.67548	-0.221863	0.000457764	
7.67578	-0.221558	0	
7.6767	-0.221863	0.000305176	
7.67639	-0.221558	0.000305176	
7.67578	-0.222168	-0.000152588	
7.6767	-0.221558	0.000762939	
7.67609	-0.222473	0.00167847	
7.67609	-0.224915	0.000610352	
7.677	-0.22644	0.000457764	
7.67609	-0.226746	0.000457764	
7.6767	-0.22644	0.000610352	
7.67609	-0.226746	0.000457764	
7.67578	-0.227051	0.000457764	
7.6767	-0.227051	-0.000152588	
7.67609	-0.227051	-0.000915527	
7.67609	-0.226746	0.000305176	
7.67609	-0.229492	0.00106812	
7.67639	-0.232239	0.000305176	
7.67609	-0.232239	0	
7.67609	-0.231628	0.000152588	
7.67578	-0.231934	0.000610352	
7.67639	-0.231934	0.000457764	
7.67609	-0.231628	0.000457764	
7.6767	-0.231628	0.000457764	
7.67639	-0.231628	0	
7.67639	-0.234375	0.000152588	
7.67639	-0.236511	0.000305176	
7.67578	-0.236206	0	
7.67578	-0.236511	-0.000152588	
7.67548	-0.236511	0	
7.67609	-0.236511	0	
7.67639	-0.236511	-0.000152588	
7.67639	-0.236511	0.000305176	
7.67609	-0.236511	0.000915527	
7.6767	-0.236511	0.000915527	
7.67639	-0.239868	0.000305176	
7.67639	-0.241394	0.000915527	
7.67548	-0.241699	0.000762939	
7.67578	-0.241394	0.000610352	
7.6767	-0.242004	0.000152588	
7.67578	-0.241394	0.000152588	
7.67609	-0.241089	0.000305176	
7.67609	-0.241089	0.000457764	
7.67639	-0.241394	0.000152588	
7.67639	-0.241089	-0.000152588	
7.67609	-0.241394	0.000762939	
7.67578	-0.244141	0.00152588	
7.67639	-0.246277	0.000610352	
7.67578	-0.246582	0.000152588	
7.67639	-0.245972	0.000762939	
7.6767	-0.246277	0.000610352	
7.67639	-0.246277	0.000762939	
7.67578	-0.246582	0.000610352	
7.67365	-0.246277	-0.000305176	
7.67242	-0.246277	-0.000915527	
7.6712	-0.245972	0.000457764	
7.67181	-0.246277	0.00137329	
7.6712	-0.249023	0.000305176	
7.6712	-0.250854	0.000457764	
7.6712	-0.251465	0.000610352	
7.67151	-0.250854	0.000457764	
7.6712	-0.251465	0.000762939	
7.67151	-0.25116	0.000305176	
7.67029	-0.25116	0.000610352	
7.6709	-0.25116	0.000152588	
7.6709	-0.250854	0	
7.6712	-0.25116	0.000762939	
7.67181	-0.25116	0	
7.6709	-0.251465	0.000152588	
7.67059	-0.253906	0.000305176	
7.6712	-0.255737	0.000152588	
7.6712	-0.256958	0	
7.6709	-0.256042	0.000152588	
7.6709	-0.256348	0.0012207	
7.67151	-0.256348	0.000915527	
7.6709	-0.256348	0.000762939	
7.6712	-0.255127	0.00106812	
7.6712	-0.255737	0.000610352	
7.6709	-0.256042	0.000610352	
7.6709	-0.255737	0.000152588	
7.6712	-0.255737	0.000152588	
7.6709	-0.256348	0.000152588	
7.6712	-0.259399	0.000152588	
7.6712	-0.26123	0	
7.6709	-0.260925	-0.000305176	
7.6712	-0.260925	0.000305176	
7.6712	-0.261536	0.00183105	
7.67151	-0.26123	0.000762939	
7.67181	-0.26123	0.000457764	
7.67029	-0.261536	0.000457764	
7.66998	-0.260315	0.000762939	
7.67151	-0.26123	0.000915527	
7.6712	-0.26123	0.000610352	
7.6712	-0.260925	-0.000457764	
7.6712	-0.261841	-0.00106812	
7.67181	-0.26062	0	
7.6709	-0.260925	0.000915527	
7.6712	-0.260925	0.000152588	
7.6709	-0.260925	0	
7.6712	-0.26062	0.000152588	
7.6712	-0.26062	0.000762939	
7.67181	-0.264587	0.000762939	
7.6712	-0.265198	0.000457764	
7.6709	-0.266113	0.000915527	
7.6709	-0.265808	-0.000152588	
7.6712	-0.266113	-0.000152588	
7.6712	-0.265503	0.000457764	
7.6709	-0.266113	-0.000457764	
7.6709	-0.265808	0.000457764	
7.6712	-0.265198	0.000457764	
7.6709	-0.266418	0.000152588	
7.67151	-0.266113	0.000152588	
7.6709	-0.265503	-0.000305176	
7.67151	-0.265198	0.00106812	
7.6712	-0.266113	0.000762939	
7.6712	-0.265503	0.000457764	
7.6712	-0.265503	0.000915527	
7.6709	-0.266113	0.000305176	
7.6709	-0.265503	0.000610352	
7.6712	-0.265503	0.000457764	
7.67151	-0.265503	0.000152588	
7.67181	-0.266113	0.000305176	
7.66876	-0.265503	0.000457764	
7.66724	-0.266418	0	
7.66632	-0.265808	-0.000152588	
7.66602	-0.266113	0.000915527	
7.66632	-0.265808	0.00152588	
7.66663	-0.266418	0.000305176	
7.66693	-0.266113	0.000610352	
7.66602	-0.265503	0.000915527	
7.66632	-0.265808	0.000610352	
7.66602	-0.266113	0.000762939	
7.66663	-0.265808	0.000457764	
7.66693	-0.266418	-0.000152588	
7.66602	-0.266113	-0.00106812	
7.66602	-0.265503	0.000305176	
7.66632	-0.266418	0.0012207	
7.66632	-0.265503	0.000305176	
7.66602	-0.266113	0.000152588	
7.66693	-0.265808	0.000762939	
7.66632	-0.265503	0.000762939	
7.66602	-0.263062	0.000305176	
7.66632	-0.26123	0.000152588	
7.66602	-0.26062	0.000457764	
7.66602	-0.261841	0	
7.66571	-0.261841	-0.000305176	
7.66602	-0.26123	0.000457764	
7.66632	-0.260925	0.000152588	
7.66602	-0.260925	0.000152588	
7.66632	-0.260925	0.000457764	
7.66632	-0.260925	0.000457764	
7.66602	-0.261536	0	
7.66632	-0.26123	0.000457764	
7.66571	-0.26062	0.00137329	
7.66632	-0.26062	0.000762939	
7.66663	-0.257874	0.000457764	
7.66663	-0.256042	0.0012207	
7.66632	-0.256653	0.000610352	
7.66632	-0.255737	0.000457764	
7.66632	-0.255737	0.000457764	
7.66602	-0.256348	0.000152588	
7.66663	-0.256042	0.000152588	
7.66663	-0.256042	0.000610352	
7.66632	-0.256348	0.000305176	
7.66602	-0.253296	-0.000457764	
7.66602	-0.252075	0.000457764	
7.66541	-0.250854	0.0012207	
7.66571	-0.25116	0.000610352	
7.66418	-0.251465	0.000762939	
7.66144	-0.25116	0.000610352	
7.66144	-0.247803	0.000762939	
7.66144	-0.246887	0.000762939	
7.66174	-0.246582	0.000457764	
7.66113	-0.245972	-0.000305176	
7.66144	-0.245972	-0.00106812	
7.66174	-0.246887	0	
7.66144	-0.24353	0.0012207	
7.66144	-0.241699	-0.000305176	
7.66174	-0.241394	0.000152588	
7.66174	-0.240784	0.000610352	
7.66113	-0.241089	0.000610352	
7.66205	-0.238647	0.000457764	
7.66144	-0.236816	0.000305176	
7.66113	-0.236511	0.000610352	
7.66052	-0.236511	0	
7.66083	-0.236511	0.000305176	
7.66205	-0.233765	0.000610352	
7.66083	-0.232239	0.000152588	
7.66174	-0.231628	0.000457764	
7.66174	-0.231323	-0.000152588	
7.66144	-0.228882	0	
7.66083	-0.227051	0	
7.66174	-0.226746	0.000457764	
7.66144	-0.22644	0.00106812	
7.66174	-0.223999	0.000915527	
7.66144	-0.221558	0.000457764	
7.66113	-0.221558	0.0012207	
7.66144	-0.221558	0.000762939	
7.66113	-0.218811	0.000762939	
7.66174	-0.217285	0.000610352	
7.66144	-0.216064	0.000305176	
7.66144	-0.213623	0.000152588	
7.66144	-0.212402	0.000457764	
7.66144	-0.212097	0.000457764	
7.66113	-0.20874	-0.000457764	
7.66174	-0.207825	0.000610352	
7.65839	-0.206909	0.0012207	
7.65686	-0.203857	0.000915527	
7.65686	-0.202026	0.000762939	
7.65686	-0.202026	0.000610352	
7.65656	-0.19928	0.0012207	
7.65656	-0.197449	0.000457764	
7.65656	-0.197144	0.000457764	
7.65656	-0.194397	0	
7.65686	-0.193176	-0.00106812	
7.65717	-0.192261	0	
7.65656	-0.189514	0.0012207	
7.65686	-0.187683	0.000305176	
7.65686	-0.184631	0.000457764	
7.65656	-0.183105	0.000457764	
7.65686	-0.18219	0.000762939	
7.65656	-0.179443	0.000457764	
7.65656	-0.177612	0.000152588	
7.65656	-0.173645	0.000762939	
7.65686	-0.172424	0	
7.65686	-0.169067	-0.000152588	
7.65656	-0.167847	0.000152588	
7.65686	-0.167542	0.000152588	
7.65747	-0.164795	0.000152588	
7.65656	-0.163269	0.000305176	
7.65717	-0.160217	0.000152588	
7.65594	-0.157776	0	
7.65656	-0.155029	0.000305176	
7.65717	-0.153503	0.00106812	
7.65594	-0.150146	0.00106812	
7.65717	-0.148621	0.000305176	
7.65625	-0.144958	0.0012207	
7.65656	-0.143127	0.000610352	
7.65411	-0.140686	0.000915527	
7.65259	-0.13855	0.000305176	
7.65167	-0.135498	0.000457764	
7.65198	-0.133972	0.000305176	
7.65076	-0.130615	0.000305176	
7.65167	-0.129089	0.000305176	
7.65137	-0.125732	-0.000457764	
7.65167	-0.124512	0.000457764	
7.65198	-0.12085	0.00152588	
7.65167	-0.118713	0.000762939	
7.65137	-0.115662	0.000762939	
7.65198	-0.114136	0.000915527	
7.65167	-0.110474	0.000915527	
7.65167	-0.109253	0.000915527	
7.65167	-0.105896	0.000457764	
7.65228	-0.101318	-0.000457764	
7.65137	-0.098877	-0.00137329	
7.65228	-0.0964355	0	
7.65198	-0.0946045	0.000915527	
7.65228	-0.0915527	0.000152588	
7.65106	-0.0866699	0.000152588	
7.65198	-0.085144	0.000457764	
7.65167	-0.0811768	0.000915527	
7.65198	-0.0799561	0.000457764	
7.65137	-0.0762939	-0.000152588	
7.65198	-0.0720215	0.000610352	
7.65198	-0.0701904	0	
7.65198	-0.0665283	-0.000610352	
7.65167	-0.0646973	0.000762939	
7.64893	-0.0619507	-0.000152588	
7.64709	-0.057373	0.000152588	
7.64679	-0.0558472	-0.000152588	
7.64709	-0.0518799	0.000152588	
7.64679	-0.0476074	-0.000152588	
7.64679	-0.045166	0.000305176	
7.64648	-0.0424194	0.000915527	
7.64709	-0.0408936	0.000762939	
7.64648	-0.0369263	0.000457764	
7.64679	-0.0332642	0.000915527	
7.64709	-0.0308228	0.000457764	
7.6474	-0.0271606	0.000915527	
7.64709	-0.022583	0.000610352	
7.64648	-0.0210571	0.000152588	
7.64709	-0.0177002	0	
7.6474	-0.0128174	0.000457764	
7.64801	-0.0119019	0.000305176	
7.64618	-0.00793457	-0.000305176	
7.64679	-0.00335693	0.000762939	
7.6474	-0.000915527	0.00106812	
7.64648	0.00213623	0.000762939	
7.64679	0.00671387	0.000457764	
7.64679	0.0112915	0.000762939	
7.64709	0.0134277	0.000762939	
7.64709	0.0164795	0.000762939	
7.64618	0.0213623	0.000457764	
7.64404	0.0228882	-0.000152588	
7.64252	0.0265503	-0.00106812	
7.64221	0.0311279	0.000305176	
7.64221	0.032959	0.000610352	
7.64191	0.0357056	0.000457764	
7.6416	0.0411987	0.000305176	
7.64221	0.0454712	0.000152588	
7.6416	0.0473022	0.000762939	
7.6413	0.0515747	0.00106812	
7.64191	0.0558472	0.000305176	
7.64221	0.0610352	0.000610352	
7.64191	0.0619507	-0.000152588	
7.64099	0.065918	-0.000152588	
7.6413	0.0701904	0.000457764	
7.64191	0.0723267	0	
7.64191	0.0759888	0.000152588	
7.64221	0.0802612	0	
7.64191	0.0839233	0.000152588	
7.64191	0.0863647	-0.000152588	
7.64191	0.0900269	0.000305176	
7.64191	0.093689	0.000915527	
7.6416	0.0985718	0.000305176	
7.64191	0.0997925	0.000610352	
7.64038	0.10437	0.00137329	
7.63885	0.108643	0.000762939	
7.63702	0.113831	0.000762939	
7.63702	0.115967	0.000762939	
7.63733	0.118713	0.000152588	
7.63702	0.123901	0.000152588	
7.63702	0.128174	0.000762939	
7.63702	0.13031	0.000152588	
7.63672	0.133667	-0.000305176	
7.63702	0.137634	0.000610352	
7.63794	0.140076	0.00106812	
7.63672	0.144348	0.000610352	
7.63702	0.148621	0.000610352	
7.63672	0.152893	0.000305176	
7.63672	0.154724	0.000610352	
7.63672	0.158386	0.00106812	
7.63611	0.162354	0.000457764	
7.63641	0.167847	-0.000152588	
7.63763	0.169373	-0.00106812	
7.63611	0.172424	0.000152588	
7.63672	0.177307	0.000915527	
7.63702	0.18219	0.000305176	
7.63672	0.184326	0.000305176	
7.63672	0.187378	0.000152588	
7.63397	0.192261	0.000915527	
7.63214	0.196533	0.000762939	
7.63214	0.19928	0.000152588	
7.63214	0.202637	0.000610352	
7.63214	0.206909	0	
7.63184	0.211792	0.000152588	
7.63184	0.213928	0.000762939	
7.63184	0.217285	0.000305176	
7.63214	0.222168	0	
7.63153	0.22644	0	
7.63214	0.227966	0	
7.63214	0.231628	0	
7.63245	0.235901	0.000305176	
7.63184	0.237732	0.000762939	
7.63123	0.241394	0.000457764	
7.63245	0.245972	0.000152588	
7.63214	0.250549	0.000915527	
7.63123	0.252686	0.000762939	
7.63123	0.256042	0.000305176	
7.63123	0.26062	0.000610352	
7.63184	0.265198	0.000305176	
7.62909	0.267944	0	
7.62756	0.270386	0.000610352	
7.62665	0.276184	0.000305176	
7.62695	0.278931	-0.000305176	
7.62634	0.281372	0.000762939	
7.62634	0.285034	0.00152588	
7.62756	0.290222	0.000610352	
7.62695	0.292664	0.000610352	
7.62604	0.295715	0.000610352	
7.62634	0.299988	0.000457764	
7.62665	0.302429	0.000457764	
7.62665	0.305786	0.000305176	
7.62665	0.310364	-0.000305176	
7.62695	0.31189	-0.00106812	
7.62695	0.315247	0	
7.62787	0.319519	0.000762939	
7.62726	0.321045	0.000152588	
7.62665	0.324402	0.000152588	
7.62634	0.328979	0.000152588	
7.62756	0.331116	0.000305176	
7.62695	0.334473	0.000152588	
7.62451	0.339355	0.000305176	
7.62299	0.341187	0.000610352	
7.62207	0.344238	-0.000152588	
7.62207	0.348816	0	
7.62207	0.350647	0.000457764	
7.62115	0.354919	0.000152588	
7.62177	0.358582	0.000152588	
7.62115	0.360413	-0.000152588	
7.62177	0.36377	0.000152588	
7.62146	0.368347	0.000152588	
7.62177	0.371094	0	
7.62207	0.374756	0.000762939	
7.62177	0.378418	0.000457764	
7.62238	0.380859	0.000762939	
7.62146	0.383911	0.00106812	
7.62207	0.385132	0.000762939	
7.62207	0.389404	0.000762939	
7.62177	0.393066	0.000457764	
7.62268	0.394592	0	
7.61902	0.398254	0.000152588	
7.61749	0.400391	0.000610352	
7.61719	0.403442	-0.000152588	
7.61688	0.407715	-0.000305176	
7.61749	0.410156	0.000610352	
7.61719	0.412903	0.0012207	
7.6178	0.414124	0.000915527	
7.6178	0.418396	0.000610352	
7.61658	0.422974	0.000610352	
7.61719	0.424194	0.000915527	
7.61658	0.427856	0.000610352	
7.61719	0.428162	0.000915527	
7.61749	0.433044	0	
7.61719	0.433655	-0.000915527	
7.61749	0.437622	0	
7.61658	0.4422	0.000915527	
7.61688	0.444641	0.000305176	
7.61719	0.446777	0.000305176	
7.61444	0.448914	0.000457764	
7.6123	0.452271	0.000762939	
7.61169	0.453796	0.000610352	
7.6123	0.457458	0.000152588	
7.61261	0.458984	0.000762939	
7.61261	0.462036	0	
7.6123	0.464172	0	
7.61169	0.467834	0.000305176	
7.61169	0.46875	0	
7.61261	0.471191	0	
7.61169	0.473328	0	
7.612	0.476685	0	
7.6123	0.478516	0.000305176	
7.61261	0.481567	0	
7.612	0.483704	0.00106812	
7.6123	0.486145	0.000610352	
7.61139	0.488892	0.000610352	
7.6123	0.491638	0.00106812	
7.60925	0.493469	0.000305176	
7.60742	0.496216	0.000610352	
7.60651	0.498352	0.000152588	
7.60712	0.500793	0	
7.60712	0.502625	0.000152588	
7.60742	0.505981	0.000457764	
7.60742	0.507507	0.000152588	
7.60681	0.508118	-0.000305176	
7.60681	0.511169	0.000305176	
7.60681	0.51239	0.00137329	
7.60742	0.516357	0.000762939	
7.60803	0.517883	0.000457764	
7.60712	0.52063	0.000457764	
7.60803	0.522766	0.000915527	
7.60712	0.523071	0.000305176	
7.60742	0.525818	0.000457764	
7.60742	0.527039	-0.000152588	
7.60651	0.530396	-0.00106812	
7.60437	0.532532	0.000152588	
7.60193	0.532227	0.00106812	
7.60254	0.534973	0.000457764	
7.60193	0.537109	0.000457764	
7.60193	0.537415	0.000305176	
7.60284	0.540161	0.000610352	
7.60254	0.541382	0.000457764	
7.60254	0.542908	0.000305176	
7.60162	0.544739	0.000610352	
7.60284	0.54657	-0.000152588	
7.60223	0.549927	-0.000305176	
7.60254	0.551758	0.000915527	
7.60223	0.552368	-0.000152588	
7.60193	0.554504	-0.000152588	
7.60193	0.556641	0	
7.60223	0.557251	0.000305176	
7.60254	0.557251	0.000152588	
7.6001	0.560303	0.000305176	
7.59766	0.562439	0.000915527	
7.59705	0.562134	0.000457764	
7.59766	0.565186	0.000762939	
7.59827	0.566406	0.00106812	
7.59705	0.567017	0.000915527	
7.59705	0.569763	0.000610352	
7.59735	0.571899	0.000915527	
7.59735	0.570984	0	
7.59766	0.571594	0.000152588	
7.59766	0.574646	0.000305176	
7.59705	0.576782	0.000152588	
7.59766	0.576782	-0.000610352	
7.59735	0.576782	0.000762939	
7.59735	0.579529	0.00137329	
7.59766	0.581665	0.000610352	
7.5943	0.581665	0.000457764	
7.59338	0.58197	0.000457764	
7.59277	0.584717	0.000457764	
7.59308	0.586243	0.000457764	
7.59216	0.586853	0.000305176	
7.59247	0.587158	-0.000152588	
7.59186	0.586243	-0.0012207	
7.59155	0.588684	0	
7.59186	0.591125	0.00106812	
7.59186	0.591736	0.000152588	
7.59216	0.591736	0.000152588	
7.59277	0.591736	0.000457764	
7.59186	0.594482	0.000762939	
7.59186	0.596313	0.000915527	
7.59277	0.596619	0.000457764	
7.59308	0.596924	0.000457764	
7.59247	0.596008	0	
7.59003	0.596924	0	
7.58759	0.599365	0.000610352	
7.58728	0.600891	-0.000152588	
7.58728	0.600891	0	
7.58789	0.602722	0.000152588	
7.58789	0.601196	-0.000457764	
7.58728	0.600586	0.000457764	
7.58728	0.601196	0.000305176	
7.58698	0.603333	0.00106812	
7.58728	0.606079	0.000915527	
7.58667	0.605774	0.000762939	
7.58759	0.606079	0.00106812	
7.58698	0.605774	0.000610352	
7.58759	0.606384	0.000610352	
7.58789	0.606995	0.000457764	
7.58667	0.606384	-0.000152588	
7.58484	0.606079	0	
7.58209	0.609436	0.000305176	
7.5827	0.610962	0.000152588	
7.58179	0.611267	-0.000457764	
7.58301	0.611267	0.000457764	
7.58301	0.610962	0.00152588	
7.58301	0.611877	0.000915527	
7.58209	0.610962	0.000762939	
7.5824	0.611267	0.000610352	
7.58179	0.611267	0.000610352	
7.58301	0.610657	0.000457764	
7.5827	0.610962	0.000915527	
7.5824	0.611267	-0.000305176	
7.5824	0.611572	-0.00106812	
7.58209	0.610962	0	
7.58301	0.610657	0.00106812	
7.58026	0.610352	0.000305176	
7.57874	0.610657	0.000152588	
7.57813	0.611267	0	
7.57813	0.611877	0.000762939	
7.57813	0.610657	0.000610352	
7.57751	0.610657	0.000305176	
7.57751	0.611267	0.000457764	
7.57813	0.610657	0	
7.57813	0.610962	-0.000152588	
7.57751	0.611572	0.000762939	
7.57813	0.610962	0.000152588	
7.57813	0.611267	0.000457764	
7.57843	0.610657	0	
7.57813	0.611267	-0.000152588	
7.57843	0.610962	0.000152588	
7.57874	0.610352	0.000152588	
7.57538	0.610962	0.00106812	
7.57385	0.611267	0.00106812	
7.57355	0.611267	0.000457764	
7.57355	0.611572	0.0012207	
7.57294	0.611572	0.000457764	
7.57355	0.610962	0.000610352	
7.57324	0.611267	0.000915527	
7.57385	0.608521	0	
7.57324	0.606995	0.000152588	
7.57324	0.606079	0.000152588	
7.57416	0.606079	0.000305176	
7.57324	0.606079	-0.000457764	
7.57385	0.606384	0.000610352	
7.57355	0.606689	0.00137329	
7.57355	0.606384	0.000915527	
7.5708	0.605774	0.000610352	
7.56866	0.605774	0.000610352	
7.56866	0.603638	0.000457764	
7.56805	0.601807	0.000457764	
7.56775	0.601196	0.000610352	
7.56927	0.601196	-0.000305176	
7.56866	0.601196	-0.00137329	
7.56836	0.600891	0	
7.56866	0.601807	0.0012207	
7.56805	0.601196	0.000152588	
7.56805	0.598755	0.000152588	
7.56775	0.596313	0.000305176	
7.56775	0.596619	0.000762939	
7.56866	0.596313	0.000762939	
7.56836	0.596313	0.000152588	
7.56653	0.596313	0.000762939	
7.56409	0.593262	-0.000152588	
7.56348	0.592041	0	
7.56378	0.592041	0.000762939	
7.56317	0.591736	-0.000152588	
7.56409	0.591431	0.000152588	
7.56256	0.592041	0.000305176	
7.56409	0.588379	-0.000152588	
7.56348	0.586853	0.000152588	
7.56348	0.586243	0	
7.56256	0.586853	0.000762939	
7.56378	0.586548	0.000457764	
7.56409	0.583496	0.000762939	
7.56317	0.581665	0.000915527	
7.56256	0.581665	0.000305176	
7.56073	0.58136	0.000457764	
7.5589	0.578308	0.000305176	
7.55798	0.576782	-0.000152588	
7.55798	0.576172	0	
7.5589	0.577087	0.000457764	
7.55798	0.576477	0.000305176	
7.5589	0.573425	-0.000610352	
7.55859	0.572205	0.000152588	
7.55798	0.572205	0.00137329	
7.55737	0.571594	0.000762939	
7.55798	0.568848	0.000457764	
7.55798	0.567627	0.000457764	
7.55859	0.567017	0.000915527	
7.55798	0.566711	0.000762939	
7.55768	0.56366	0.000457764	
7.55554	0.561829	-0.000457764	
7.55371	0.562134	-0.000915527	
7.5528	0.561523	0.000152588	
7.55402	0.558777	0.0012207	
7.55371	0.556946	0	
7.55341	0.557251	-0.000305176	
7.55371	0.553894	0.000457764	
7.55371	0.552368	0.000762939	
7.5531	0.552673	0.000457764	
7.55371	0.552368	0.000152588	
7.5531	0.549316	0.000152588	
7.5528	0.54718	-0.000152588	
7.55402	0.546875	0	
7.5528	0.544128	0.000762939	
7.55035	0.542603	-0.000152588	
7.54883	0.541992	0	
7.54913	0.539551	0.000305176	
7.54883	0.53833	0.000305176	
7.54822	0.537415	0	
7.54883	0.538025	0.000152588	
7.54883	0.535278	0.000762939	
7.54913	0.533142	0.000610352	
7.54852	0.531921	0.000762939	
7.54822	0.52948	0.00106812	
7.54883	0.527954	0.000457764	
7.54883	0.528564	0.000762939	
7.54883	0.524597	0.000152588	
7.54822	0.523071	0.000305176	
7.54608	0.522461	0.000152588	
7.54395	0.52002	0.000457764	
7.54303	0.517273	0.000457764	
7.54395	0.517883	-0.000457764	
7.54364	0.514526	0.000610352	
7.54364	0.513611	0.0012207	
7.54395	0.51239	0.000915527	
7.54333	0.509949	0.000457764	
7.54364	0.508728	0.000305176	
7.54395	0.508118	0.000305176	
7.54333	0.505371	0.000457764	
7.54395	0.50354	0.000610352	
7.54395	0.503235	-0.000305176	
7.54242	0.499878	-0.00152588	
7.5412	0.498657	0	
7.53906	0.498047	0.000762939	
7.53845	0.494995	0.000457764	
7.53876	0.49408	0	
7.53906	0.490417	0.000305176	
7.53876	0.488586	0.000610352	
7.53876	0.488586	0.000762939	
7.53967	0.485229	0.000152588	
7.53906	0.484314	0.000305176	
7.53876	0.483093	0.000152588	
7.53906	0.480652	-0.000152588	
7.53906	0.478821	0.00106812	
7.53906	0.479126	0	
7.53906	0.475464	0.000457764	
7.53601	0.473938	0.000152588	
7.53448	0.470886	-0.000152588	
7.53418	0.468445	0.000152588	
7.53448	0.468445	0.000305176	
7.53357	0.466003	0.000610352	
7.53418	0.464478	0.000610352	
7.53357	0.464478	0	
7.53296	0.461426	0.000762939	
7.53418	0.459595	0.000457764	
7.53387	0.456238	0.000305176	
7.53387	0.454712	0.000457764	
7.53387	0.454407	0	
7.53479	0.45105	-0.000152588	
7.53113	0.448608	0.000610352	
7.52991	0.445862	0	
7.5293	0.444641	-0.000305176	
7.5293	0.444946	0.000305176	
7.5293	0.440979	0.0012207	
7.52869	0.440063	0.000762939	
7.52899	0.436401	0.000457764	
7.52838	0.435486	0.000457764	
7.5293	0.433655	0.000610352	
7.5296	0.431519	0.000305176	
7.52869	0.429688	0.000457764	
7.52869	0.426636	-0.000152588	
7.52869	0.424805	-0.00106812	
7.52594	0.425415	0.000305176	
7.52441	0.421753	0.000762939	
7.52319	0.419922	0.000457764	
7.5235	0.41626	0.000457764	
7.52441	0.415344	0.000152588	
7.5238	0.415344	0.000610352	
7.52441	0.411987	0.000762939	
7.5238	0.410461	0	
7.52411	0.40741	0.000152588	
7.52289	0.405579	-0.000305176	
7.5235	0.404968	0.000305176	
7.5235	0.402222	0.000457764	
7.52441	0.400085	-0.000305176	
7.52106	0.397034	0.000152588	
7.51953	0.395203	0.000305176	
7.51953	0.394592	0.000152588	
7.51862	0.392151	0.000457764	
7.51862	0.390625	0	
