model_ppg1.acq
0.5 msec/sample
3 channels
RSP, X, RSPEC-R
Volts
PPG, X, PPGED-R
Volts
ECG, Y, RSPEC-R
mV
CH1	CH2	CH13	
245455	245455	245455	
4.88556	-0.161438	0.000610352	
4.88525	-0.162964	-0.000152588	
4.88159	-0.162659	0	
4.88129	-0.162659	0.000152588	
4.88068	-0.163879	0.000457764	
4.88068	-0.166016	0.000305176	
4.88037	-0.168457	0.000305176	
4.88037	-0.167847	0.00106812	
4.88037	-0.167847	0.0012207	
4.88037	-0.168762	0.000457764	
4.88098	-0.171814	0.000762939	
4.88098	-0.172729	0.000915527	
4.88098	-0.172424	0.000610352	
4.88068	-0.172729	0.00106812	
4.88098	-0.172424	0	
4.88037	-0.17395	-0.000305176	
4.88068	-0.176697	0	
4.88037	-0.177612	0.000457764	
4.88007	-0.177612	0.000457764	
4.88068	-0.177612	0.000610352	
4.88098	-0.178528	0.000305176	
4.88007	-0.181274	0.000762939	
4.88098	-0.1828	0.000762939	
4.88098	-0.182495	0.000610352	
4.88098	-0.182495	0.000305176	
4.88098	-0.182495	0.000457764	
4.88068	-0.183105	0	
4.88037	-0.186157	0.000305176	
4.88007	-0.187988	0	
4.88129	-0.187378	0.000152588	
4.88098	-0.187988	-0.000152588	
4.88068	-0.187683	0.000305176	
4.88037	-0.188599	0.000152588	
4.88037	-0.191956	-0.000152588	
4.88037	-0.192566	0.000457764	
4.88037	-0.192261	0.0012207	
4.88037	-0.191956	0.000610352	
4.88129	-0.192871	0.000457764	
4.88068	-0.192871	0.000762939	
4.88007	-0.195923	0.000152588	
4.88037	-0.197754	0.000610352	
4.88037	-0.197449	0.000305176	
4.87976	-0.197144	0.000457764	
4.88037	-0.197754	0.000152588	
4.88068	-0.198364	0.000457764	
4.88098	-0.201416	0.000152588	
4.88098	-0.202332	-0.000152588	
4.88068	-0.202637	0.000915527	
4.88068	-0.202026	0.00137329	
4.88068	-0.201721	0.000762939	
4.88068	-0.203857	0.000762939	
4.88007	-0.205994	0.000610352	
4.88068	-0.20752	0.000457764	
4.88068	-0.206909	0.000457764	
4.88037	-0.206909	0.000457764	
4.88037	-0.207214	-0.000305176	
4.88037	-0.207825	-0.000305176	
4.88098	-0.210876	0.000305176	
4.88068	-0.211792	0.000152588	
4.88068	-0.212097	0.000305176	
4.88129	-0.212402	0.000305176	
4.88068	-0.211487	0.000610352	
4.88068	-0.213928	0.000457764	
4.88007	-0.215759	0.000457764	
4.88007	-0.216675	0.000305176	
4.88129	-0.21698	0.000610352	
4.88068	-0.217285	0.000305176	
4.88068	-0.21698	0	
4.88037	-0.217285	-0.000152588	
4.88098	-0.217896	-0.000305176	
4.88068	-0.221252	0	
4.88068	-0.221863	-0.000152588	
4.88068	-0.221558	0	
4.88037	-0.221863	0	
4.88159	-0.222168	0.000457764	
4.88068	-0.223083	0.0012207	
4.88037	-0.226135	0.000762939	
4.88037	-0.226746	0.000610352	
4.88007	-0.226746	0.000915527	
4.88037	-0.226746	0.000305176	
4.88007	-0.226746	0.000610352	
4.88007	-0.227051	0	
4.88037	-0.227661	0.000305176	
4.88129	-0.230713	0.000305176	
4.88129	-0.231934	0.000762939	
4.88098	-0.231323	0.000610352	
4.88037	-0.231934	0.000152588	
4.88098	-0.231628	0.000457764	
4.88007	-0.231323	0.00137329	
4.88037	-0.232849	0.000762939	
4.88129	-0.234985	0.000610352	
4.88068	-0.236206	0.000457764	
4.88037	-0.236206	0.000915527	
4.88068	-0.236206	0.000915527	
4.88098	-0.236206	0.000762939	
4.88159	-0.237427	-0.000152588	
4.88037	-0.239868	-0.000610352	
4.88037	-0.241699	0.000457764	
4.88098	-0.241394	0.000305176	
4.88037	-0.241699	0.000610352	
4.88037	-0.241699	0.000305176	
4.88068	-0.241089	0.000762939	
4.88037	-0.242615	0.000762939	
4.88037	-0.244751	0.000457764	
4.88068	-0.245972	0.000152588	
4.88068	-0.246887	0.000457764	
4.88068	-0.247498	0.000305176	
4.88037	-0.245972	-0.000152588	
4.88129	-0.247192	-0.000152588	
4.88068	-0.246887	0.000152588	
4.88068	-0.250549	0.000152588	
4.88037	-0.250549	0.000457764	
4.88037	-0.251465	0.000152588	
4.88068	-0.25116	0.000152588	
4.88129	-0.251465	0.000762939	
4.88037	-0.25116	0.00152588	
4.88037	-0.25238	0.0012207	
4.88037	-0.255127	0.000457764	
4.88007	-0.255737	0.000762939	
4.88007	-0.255737	0.000457764	
4.88007	-0.256042	0.000457764	
4.88007	-0.256042	0.000152588	
4.88068	-0.256348	0.000152588	
4.88037	-0.256958	0.000152588	
4.88007	-0.26001	0.000305176	
4.88068	-0.260925	0.000457764	
4.88037	-0.260925	0.000305176	
4.88007	-0.261536	0.000610352	
4.88068	-0.260925	0.00137329	
4.88068	-0.26123	0.000915527	
4.88068	-0.260315	0.000762939	
4.88037	-0.262451	0.000915527	
4.88068	-0.264587	0.000610352	
4.88037	-0.265503	0.000762939	
4.88098	-0.265808	0.000305176	
4.88068	-0.266418	-0.000305176	
4.88098	-0.265503	-0.000457764	
4.88068	-0.265808	0.000457764	
4.88098	-0.266418	0.000305176	
4.88068	-0.269775	0.000305176	
4.88037	-0.270691	0.000305176	
4.88098	-0.270996	0.000762939	
4.88068	-0.270996	0.000610352	
4.88037	-0.270691	0.000610352	
4.88098	-0.270691	0.000305176	
4.88068	-0.271912	0.000305176	
4.88068	-0.274658	0.000305176	
4.88098	-0.275574	0.000457764	
4.88098	-0.275574	-0.000152588	
4.88098	-0.275879	0	
4.88068	-0.276184	0.000152588	
4.88098	-0.276489	0.000305176	
4.88129	-0.276794	0.000305176	
4.88068	-0.279236	0.000305176	
4.88068	-0.280457	0.000457764	
4.88098	-0.280762	0.000915527	
4.88068	-0.281067	0.00106812	
4.88098	-0.281372	0.000152588	
4.88037	-0.281372	0.000762939	
4.88068	-0.281372	0.000457764	
4.88068	-0.281372	0.000610352	
4.88098	-0.284424	0.000152588	
4.88129	-0.285339	0	
4.88007	-0.28595	0.000152588	
4.88068	-0.28595	0.000305176	
4.88068	-0.285339	0.000762939	
4.88129	-0.285645	0	
4.88068	-0.28656	0.000915527	
4.88037	-0.289307	0.00152588	
4.87976	-0.290222	0.000762939	
4.88037	-0.290527	0.000610352	
4.88037	-0.289917	0.000762939	
4.88098	-0.290222	0.000762939	
4.88129	-0.290833	0.000610352	
4.88068	-0.291443	0.000457764	
4.88037	-0.294495	-0.000305176	
4.88037	-0.294495	-0.000305176	
4.88129	-0.29541	0.000305176	
4.88098	-0.29541	0.000457764	
4.88037	-0.296021	0.000152588	
4.88068	-0.295105	0.000457764	
4.88037	-0.2948	0.000610352	
4.88098	-0.296021	0.000457764	
4.88037	-0.299377	0.000610352	
4.87976	-0.300598	0.000152588	
4.88098	-0.300903	0.000762939	
4.88129	-0.300903	0	
4.8819	-0.301208	0.000152588	
4.88464	-0.300598	-0.000305176	
4.88556	-0.301208	0.000305176	
4.88556	-0.30426	0.000305176	
4.88525	-0.305786	0.000152588	
4.88556	-0.305176	0.000152588	
4.88586	-0.306396	0	
4.88586	-0.305176	0.000610352	
4.88586	-0.305176	0.0012207	
4.88556	-0.305176	0.000762939	
4.88434	-0.305786	0.000610352	
4.88617	-0.309143	0.000457764	
4.88617	-0.310059	0.000457764	
4.88525	-0.310364	0.000762939	
4.88495	-0.310669	0.000457764	
4.88586	-0.310059	0.000152588	
4.88525	-0.310669	0.000305176	
4.88586	-0.311279	0.000152588	
4.88525	-0.31311	0.000152588	
4.88586	-0.314636	0.000457764	
4.88586	-0.314331	0.000610352	
4.88556	-0.314636	0.000915527	
4.88525	-0.314941	0.000915527	
4.88586	-0.314636	0.000762939	
4.88525	-0.314026	0.000915527	
4.88556	-0.315552	0.000915527	
4.88525	-0.318298	0.000762939	
4.88525	-0.319214	0.00106812	
4.88556	-0.319824	-0.000152588	
4.88586	-0.319519	-0.000305176	
4.88586	-0.319824	0.000152588	
4.88556	-0.319519	0.000762939	
4.88556	-0.32074	0.000457764	
4.88556	-0.323792	0.000305176	
4.88525	-0.324402	0.000762939	
4.88525	-0.324402	0.000457764	
4.88586	-0.324707	0.000610352	
4.88556	-0.325317	0.000305176	
4.88586	-0.325012	0.000762939	
4.88556	-0.324707	0.000305176	
4.88525	-0.325623	0	
4.88525	-0.328064	0	
4.88525	-0.32959	0.000305176	
4.88495	-0.3302	0	
4.88586	-0.329285	0	
4.88525	-0.32959	0.000305176	
4.88525	-0.329895	0.000152588	
4.88556	-0.330811	0.000152588	
4.88556	-0.333252	0.00106812	
4.88617	-0.334778	0.0012207	
4.88556	-0.334167	0.000305176	
4.88647	-0.334778	0.000305176	
4.88892	-0.334167	0.000762939	
4.88983	-0.334473	0.000762939	
4.89044	-0.334778	0.000152588	
4.89075	-0.335693	0.000152588	
4.89014	-0.338745	0.000305176	
4.89075	-0.339661	0.000610352	
4.89075	-0.339355	0.000305176	
4.89044	-0.340271	0.000152588	
4.89075	-0.339661	0.000457764	
4.89075	-0.339355	0.00106812	
4.89075	-0.340881	0.000152588	
4.89014	-0.343628	0.000762939	
4.89044	-0.344543	0.000610352	
4.89105	-0.343323	0.000762939	
4.88983	-0.344543	0.000762939	
4.89105	-0.344238	0.000457764	
4.89075	-0.344543	-0.000152588	
4.88983	-0.344238	-0.000457764	
4.89075	-0.345459	0.000152588	
4.89105	-0.3479	0.000915527	
4.89105	-0.348206	0	
4.89014	-0.349731	0.000152588	
4.89044	-0.348816	0.000610352	
4.89044	-0.348816	0.000457764	
4.89044	-0.348511	0.000610352	
4.89044	-0.349121	0.000305176	
4.89014	-0.350342	0.000610352	
4.88983	-0.353699	0.000457764	
4.89075	-0.354004	0.000457764	
4.89075	-0.354614	-0.000152588	
4.89014	-0.354309	0.000152588	
4.89075	-0.354614	0.000152588	
4.89014	-0.354004	0.000305176	
4.89075	-0.354309	0.000457764	
4.89044	-0.35553	0.000152588	
4.89044	-0.358276	0.000305176	
4.89044	-0.358887	0.0012207	
4.89075	-0.359192	0.000915527	
4.89136	-0.358887	0.000915527	
4.8938	-0.358582	0.000457764	
4.89471	-0.358582	0.000762939	
4.89563	-0.358582	0.000610352	
4.89471	-0.360107	0.000305176	
4.89532	-0.363159	0.000305176	
4.89532	-0.36377	0.000152588	
4.89471	-0.36377	0.000610352	
4.89532	-0.364075	0.000305176	
4.89563	-0.364685	0.000305176	
4.89563	-0.364075	0.000610352	
4.89532	-0.364075	0.0012207	
4.89502	-0.364075	0.000152588	
4.89532	-0.367737	0.000762939	
4.89563	-0.369263	0.000762939	
4.89594	-0.369263	0.000457764	
4.89563	-0.368652	0.00106812	
4.89594	-0.368958	0.000457764	
4.89502	-0.368958	-0.000457764	
4.89532	-0.368652	-0.000457764	
4.89563	-0.369873	0.000152588	
4.89532	-0.372925	0.000915527	
4.89563	-0.373535	0.000305176	
4.89594	-0.374146	0.000152588	
4.89563	-0.37384	0.000610352	
4.89532	-0.37384	0.000762939	
4.89532	-0.37384	0.000457764	
4.89471	-0.373535	0.000152588	
4.89502	-0.374756	0.000610352	
4.89563	-0.377502	0.000305176	
4.89502	-0.378723	0.000152588	
4.89532	-0.378113	0	
4.89532	-0.379028	0.000305176	
4.89563	-0.379028	0	
4.89594	-0.379333	0	
4.89563	-0.379028	0	
4.89624	-0.379639	0.000305176	
4.89899	-0.382996	0.000305176	
4.90051	-0.383911	0.00106812	
4.90021	-0.383606	0.000915527	
4.8999	-0.383911	0.000762939	
4.90051	-0.383911	0.000610352	
4.90021	-0.382996	0.000457764	
4.90082	-0.383301	0.000915527	
4.8999	-0.383301	0.000152588	
4.90021	-0.384521	0.000305176	
4.8999	-0.387878	0.000305176	
4.90082	-0.388489	0.000152588	
4.90051	-0.388184	0.000457764	
4.90051	-0.387878	0.000305176	
4.90051	-0.388794	0.000457764	
4.8999	-0.388489	0.00106812	
4.90051	-0.388489	0.000457764	
4.90051	-0.389099	0.000915527	
4.90021	-0.392456	0.000610352	
4.90051	-0.392761	0.000457764	
4.90051	-0.393677	0.000915527	
4.90112	-0.393677	0.000762939	
4.90021	-0.392761	-0.000457764	
4.90051	-0.393982	-0.000610352	
4.90112	-0.393982	0	
4.90082	-0.393982	0.000915527	
4.90021	-0.394592	0.000610352	
4.90021	-0.397644	0	
4.90021	-0.397644	0.000305176	
4.90021	-0.398254	0.000457764	
4.90021	-0.39856	0.000610352	
4.8999	-0.398254	0.000152588	
4.90021	-0.398254	0.000762939	
4.90051	-0.39856	0.000457764	
4.90021	-0.39856	0.000152588	
4.90112	-0.398865	0.000152588	
4.90356	-0.402222	0.000305176	
4.9057	-0.403748	0.000152588	
4.9057	-0.403137	0.000152588	
4.9054	-0.403748	0.000152588	
4.9054	-0.403137	0	
4.9054	-0.403442	0.000457764	
4.90509	-0.403442	0.00106812	
4.9054	-0.403137	0.0012207	
4.90509	-0.404358	0.000457764	
4.90509	-0.40741	0.000610352	
4.90601	-0.40802	0.000610352	
4.90479	-0.40802	0.000762939	
4.9057	-0.407715	0.000152588	
4.9054	-0.408325	0.000152588	
4.90448	-0.407715	0.000305176	
4.90479	-0.40802	0.000610352	
4.90509	-0.407715	0.000457764	
4.90509	-0.40802	0	
4.9054	-0.408936	0.000457764	
4.9057	-0.411682	0.00137329	
4.90509	-0.412598	0.000915527	
4.9057	-0.412598	0.000762939	
4.9057	-0.412903	0.000915527	
4.9057	-0.413208	0.000457764	
4.90509	-0.412903	0.000610352	
4.90601	-0.412598	0.000610352	
4.9057	-0.413513	0	
4.90509	-0.413513	-0.000762939	
4.9057	-0.414429	0.000305176	
4.9057	-0.41748	0.000915527	
4.9057	-0.418396	0.000457764	
4.90509	-0.41748	0.000457764	
4.90509	-0.41748	0.000610352	
4.90479	-0.418396	0.000915527	
4.9057	-0.418091	0.000457764	
4.90845	-0.417786	0.000457764	
4.91028	-0.417786	0.000305176	
4.90997	-0.418091	0.000610352	
4.91058	-0.417786	-0.000152588	
4.91028	-0.419006	0.000152588	
4.91028	-0.421753	0	
4.91028	-0.423279	0	
4.90997	-0.422363	0.000610352	
4.91028	-0.422974	0	
4.90997	-0.422668	0.000305176	
4.91028	-0.422974	0.000457764	
4.91089	-0.422058	0.000762939	
4.91058	-0.422974	0.00152588	
4.90936	-0.423279	0.000457764	
4.91028	-0.422668	0.000457764	
4.90967	-0.422668	0.000610352	
4.91028	-0.423279	0.000610352	
4.91028	-0.426331	0.000610352	
4.91028	-0.427246	0.000152588	
4.90967	-0.427856	0.000152588	
4.90997	-0.427551	0.000305176	
4.90967	-0.428162	0.000152588	
4.91028	-0.427856	0.000457764	
4.90967	-0.427246	0.000457764	
4.91089	-0.427856	0.00106812	
4.91089	-0.427246	0.000762939	
4.91089	-0.427856	0.000457764	
4.90967	-0.427246	0.000457764	
4.91028	-0.427551	0.00106812	
4.91028	-0.427551	0.000915527	
4.90967	-0.427856	0.000457764	
4.90997	-0.428162	-0.000305176	
4.90967	-0.427856	-0.000305176	
4.91028	-0.428467	0	
4.91119	-0.427856	0.000457764	
4.91394	-0.428772	0.000305176	
4.91577	-0.431213	0	
4.91486	-0.432739	0.000610352	
4.91547	-0.432434	0.000610352	
4.91516	-0.433044	0.000762939	
4.91516	-0.432739	0.000762939	
4.91547	-0.432434	-0.000152588	
4.91425	-0.432739	0.000915527	
4.91577	-0.432739	0	
4.91516	-0.433044	0.000457764	
4.91547	-0.432434	0.000152588	
4.91486	-0.433044	0.000152588	
4.91547	-0.432739	0.000305176	
4.91547	-0.432129	0.000305176	
4.91577	-0.432434	0.000152588	
4.91486	-0.432129	0.000152588	
4.91486	-0.432739	0.00106812	
4.91455	-0.432434	0.00152588	
4.91516	-0.432434	0.000457764	
4.91516	-0.432739	0.000915527	
4.91516	-0.432434	0.000305176	
4.91516	-0.431213	0.000457764	
4.91486	-0.429077	0.000610352	
4.91486	-0.428162	-0.000152588	
4.91547	-0.427551	0.000152588	
4.91516	-0.428162	0.000305176	
4.91516	-0.427856	0.000305176	
4.91547	-0.427856	-0.000152588	
4.91547	-0.427856	0.000305176	
4.91577	-0.427246	0.0012207	
4.91516	-0.427551	0.000762939	
4.91547	-0.427246	0.000915527	
4.91547	-0.427246	0.000762939	
4.91516	-0.427246	0.0012207	
4.91608	-0.427551	0.0012207	
4.91882	-0.426941	0.000915527	
4.91943	-0.424194	-0.000457764	
4.91974	-0.422668	-0.000305176	
4.92035	-0.422974	0.000152588	
4.92035	-0.422974	0.000915527	
4.92004	-0.423279	0.000457764	
4.91974	-0.423889	0.000152588	
4.92035	-0.422974	0.000305176	
4.92004	-0.422058	0.000762939	
4.92035	-0.419006	0.000305176	
4.92035	-0.417786	0	
4.92035	-0.417786	0.000305176	
4.91974	-0.418091	0.000610352	
4.92004	-0.417786	0	
4.91974	-0.417175	0.000152588	
4.92035	-0.414124	-0.000152588	
4.92035	-0.413513	-0.000152588	
4.91974	-0.413208	0.000152588	
4.92035	-0.412903	0.000152588	
4.92004	-0.411682	0.000305176	
4.92004	-0.409241	0.000152588	
4.92035	-0.40863	0.000915527	
4.92035	-0.408325	0.00167847	
4.92035	-0.40741	0.000457764	
4.91974	-0.404663	0.000915527	
4.92004	-0.402832	0.000457764	
4.92004	-0.403442	0.000915527	
4.91943	-0.401611	0.000457764	
4.92035	-0.39917	0.000152588	
4.92004	-0.39856	0.000152588	
4.92035	-0.397949	0.000457764	
4.92035	-0.394592	0	
4.91943	-0.393677	0.000305176	
4.92065	-0.392151	0.000305176	
4.92096	-0.389099	0.000915527	
4.9231	-0.387878	0.000762939	
4.92371	-0.386658	0.000457764	
4.92493	-0.384216	0.000610352	
4.92523	-0.382996	0.000762939	
4.92493	-0.38269	0.000915527	
4.92523	-0.379944	0.000762939	
4.92432	-0.377808	-0.000152588	
4.92523	-0.375061	-0.000305176	
4.92462	-0.373535	-0.000152588	
4.92493	-0.372925	0.000610352	
4.92401	-0.370178	0.000152588	
4.92493	-0.368042	0.000152588	
4.92554	-0.364685	0.000305176	
4.92554	-0.364075	0.000457764	
4.92554	-0.362854	0.000610352	
4.92554	-0.359802	0	
4.92462	-0.357971	0.000457764	
4.92493	-0.355225	0.000457764	
4.92462	-0.353394	-0.000152588	
4.92462	-0.350037	0.000152588	
4.92493	-0.348511	0	
4.92462	-0.345154	0.000457764	
4.92462	-0.343018	0	
4.92401	-0.340576	0	
4.92462	-0.338135	0.000457764	
4.92523	-0.335388	0.000305176	
4.92432	-0.333557	0.00106812	
4.92523	-0.32959	0.00152588	
4.92493	-0.325928	0.000457764	
4.92432	-0.323792	0.000152588	
4.92493	-0.320435	0.000305176	
4.92493	-0.318604	0.000762939	
4.92554	-0.315247	0.000457764	
4.92523	-0.310669	0.000152588	
4.92828	-0.309753	0.000305176	
4.9295	-0.306091	0.000305176	
4.92981	-0.30426	-0.000152588	
4.92981	-0.300598	0.000305176	
4.9295	-0.296936	0.000610352	
4.93042	-0.294189	0.000610352	
4.92981	-0.290527	0.00106812	
4.9295	-0.28717	0.000915527	
4.92981	-0.284729	0.000457764	
4.93042	-0.281067	0.00106812	
4.93042	-0.276489	0.000457764	
4.92981	-0.274963	0.000152588	
4.9292	-0.271301	0	
4.9292	-0.267334	-0.000305176	
4.93011	-0.264893	0	
4.9292	-0.26062	0.000762939	
4.9295	-0.255737	0.000305176	
4.9292	-0.252686	0.000152588	
4.93011	-0.250244	0.000305176	
4.93011	-0.245972	0.000610352	
4.92981	-0.241089	0.000915527	
4.93011	-0.237732	0.000152588	
4.9295	-0.234985	0.000305176	
4.92981	-0.231628	0.000762939	
4.93011	-0.227356	0.000457764	
4.9295	-0.223389	0	
4.92981	-0.220947	0.000152588	
4.9295	-0.216675	0.000305176	
4.93042	-0.212402	0.000152588	
4.93011	-0.20752	0.000152588	
4.93011	-0.202332	0.000457764	
4.92981	-0.198669	0.000305176	
4.93011	-0.195923	0.000915527	
4.93347	-0.192566	0.00152588	
4.93439	-0.187683	0.000152588	
4.935	-0.1828	0.000457764	
4.93469	-0.177917	0.000610352	
4.93469	-0.17334	0.000915527	
4.93469	-0.170898	0.000762939	
4.93469	-0.167847	0	
4.9353	-0.163269	0	
4.93469	-0.158386	0.000457764	
4.935	-0.153198	0	
4.93469	-0.148315	0.000610352	
4.93469	-0.144043	0.000305176	
4.93469	-0.139771	0.000762939	
4.935	-0.137329	0.000915527	
4.93469	-0.133972	0.000610352	
4.93469	-0.129089	0.000762939	
4.93439	-0.124207	0.000762939	
4.935	-0.119324	0.000610352	
4.93469	-0.113831	0.000915527	
4.93408	-0.108948	-0.000305176	
4.93469	-0.104065	-0.000152588	
4.93408	-0.0997925	0.000152588	
4.93439	-0.0949097	0.000610352	
4.93469	-0.0894165	0.000152588	
4.935	-0.0842285	0.000305176	
4.935	-0.0796509	0.000610352	
4.93469	-0.0756836	0.000762939	
4.9353	-0.0738525	0.000915527	
4.93469	-0.0698853	0.000152588	
4.93469	-0.0650024	0.000762939	
4.93439	-0.0604248	0.000610352	
4.93835	-0.055542	0.000152588	
4.93927	-0.050354	0.000305176	
4.93927	-0.0454712	0.000305176	
4.93988	-0.0408936	0.000152588	
4.93927	-0.0357056	0.000152588	
4.93958	-0.0311279	0.000152588	
4.93958	-0.0265503	0.000305176	
4.93988	-0.020752	0.000152588	
4.93927	-0.0158691	0.000915527	
4.93958	-0.0109863	0.0012207	
4.93896	-0.00610352	0.000610352	
4.93896	-0.0012207	0.000762939	
4.93988	0.00305176	0.000915527	
4.93958	0.00854492	0.00106812	
4.93988	0.0134277	0.000915527	
4.93988	0.0177002	0.000152588	
4.93988	0.0222778	0	
4.93988	0.027771	0.000305176	
4.93927	0.0326538	0	
4.93988	0.0378418	0.000457764	
4.93958	0.0421143	0.000305176	
4.94019	0.0476074	0.00106812	
4.93896	0.0531006	0.000915527	
4.93988	0.057373	0.000610352	
4.93927	0.0622559	0.000915527	
4.93988	0.0680542	0.000915527	
4.94019	0.0732422	0.000610352	
4.93988	0.0775146	0.000457764	
4.94019	0.0811768	0	
4.94263	0.0860596	0	
4.94446	0.0909424	0	
4.94537	0.0964355	0.000610352	
4.94446	0.100708	-0.000152588	
4.94415	0.105896	0.000305176	
4.94415	0.110779	0.000152588	
4.94537	0.115356	0.000762939	
4.94446	0.12085	0.000915527	
4.94415	0.125732	0.000305176	
4.94476	0.13031	0.000457764	
4.94446	0.135803	0.000610352	
4.94507	0.140076	0.000457764	
4.94446	0.144958	0.000610352	
4.94507	0.150146	-0.000305176	
4.94476	0.154724	0.000305176	
4.94446	0.159302	0.000152588	
4.94446	0.164795	0.000152588	
4.94537	0.169373	0.000152588	
4.94476	0.174255	0.000305176	
4.94476	0.179749	0.000762939	
4.94476	0.184326	0.00137329	
4.94476	0.188904	0.000762939	
4.94507	0.194092	0.000762939	
4.94507	0.198669	0.000762939	
4.94446	0.204163	0.000305176	
4.94537	0.208435	0.000457764	
4.94812	0.213928	0.000305176	
4.94934	0.218811	0	
4.94934	0.223694	0.000610352	
4.94965	0.227661	0.000152588	
4.94965	0.233459	0.000305176	
4.94934	0.237732	0.000457764	
4.94934	0.24292	0.000762939	
4.94934	0.248413	0.00106812	
4.94965	0.252686	0.000762939	
4.94995	0.258179	0.000457764	
4.94995	0.263062	0.000610352	
4.94965	0.267639	0.000457764	
4.94965	0.273438	0.000457764	
4.94965	0.27832	-0.000152588	
4.94965	0.282593	0	
4.94965	0.287476	0	
4.94995	0.291748	0.00106812	
4.94995	0.296936	0.000152588	
4.94995	0.301819	0.000152588	
4.94965	0.307312	0	
4.94934	0.312195	0.000762939	
4.95026	0.316162	0.000457764	
4.95026	0.32135	0.000457764	
4.953	0.325928	0.000610352	
4.95422	0.331116	0.000457764	
4.95453	0.335999	0	
4.95453	0.339661	0.000457764	
4.95392	0.342102	-0.000152588	
4.95422	0.346069	0.000305176	
4.95453	0.350647	0.000152588	
4.95453	0.355835	-0.000152588	
4.95453	0.360413	0.000610352	
4.95453	0.365601	0.000152588	
4.95422	0.371399	0.000762939	
4.95453	0.375366	0.0012207	
4.95422	0.380249	0.000457764	
4.95422	0.384216	0.000610352	
4.95483	0.386353	0.000610352	
4.95453	0.390625	0.000305176	
4.95453	0.395508	0.000457764	
4.95483	0.39978	0.000152588	
4.95453	0.404968	0.000152588	
4.95514	0.410156	0.000610352	
4.95453	0.414429	0.000152588	
4.95514	0.415649	0.000610352	
4.9585	0.420532	0.000457764	
4.95972	0.424194	0.000915527	
4.95972	0.429382	0.000457764	
4.9588	0.434875	0.000915527	
4.95941	0.437927	0.000457764	
4.95941	0.440674	0.00106812	
4.96002	0.444031	0.000915527	
4.95911	0.449219	0.000915527	
4.95911	0.454102	-0.000152588	
4.95972	0.458984	-0.000305176	
4.95941	0.462952	-0.000152588	
4.95941	0.465088	0.000915527	
4.95972	0.46875	0.000152588	
4.95941	0.473328	0	
4.95972	0.477295	0.000305176	
4.95972	0.479736	0.000610352	
4.95941	0.483704	0.000610352	
4.95972	0.487671	0.000152588	
4.95941	0.491943	0.000915527	
4.96033	0.493774	0.000610352	
4.96338	0.498047	-0.000152588	
4.96429	0.502625	0	
4.9646	0.506592	-0.000152588	
4.96368	0.508423	0	
4.9646	0.513	0.000305176	
4.96429	0.516663	0.000152588	
4.96429	0.518494	0.000152588	
4.96399	0.522461	0.000152588	
4.9649	0.527649	0.000762939	
4.96429	0.531921	0.0012207	
4.96429	0.534058	0.000457764	
4.96399	0.538025	0.000305176	
4.96429	0.541992	0.000762939	
4.96429	0.543213	0.000457764	
4.96521	0.547791	0.000915527	
4.9646	0.550842	-0.000152588	
4.9646	0.553284	0.000305176	
4.9646	0.556335	0.000305176	
4.9649	0.557861	0	
4.9649	0.561829	0.000152588	
4.96796	0.565796	0	
4.96979	0.567627	0.000762939	
4.96979	0.571899	0.000915527	
4.96948	0.575562	0.000610352	
4.96948	0.578308	0.000915527	
4.96948	0.580139	0.000915527	
4.96948	0.582581	0.000457764	
4.96948	0.585327	0.00106812	
4.96918	0.587463	-0.000305176	
4.96918	0.591125	-0.000457764	
4.96948	0.594788	0	
4.96948	0.597229	0.000762939	
4.96918	0.599976	0.000305176	
4.96979	0.601807	0.000457764	
4.96979	0.604858	0	
4.96979	0.606995	0.000915527	
4.96887	0.609741	0.000762939	
4.9707	0.611877	0.000610352	
4.97345	0.615845	0.000305176	
4.97345	0.61676	0.000762939	
4.97437	0.619507	0.000152588	
4.97528	0.621338	0.000305176	
4.97498	0.62439	-0.000152588	
4.97437	0.626221	0.000305176	
4.97498	0.629578	0.000152588	
4.97467	0.631104	0	
4.97437	0.634766	0.000610352	
4.97406	0.635986	0.000152588	
4.97437	0.639343	0.000762939	
4.97467	0.640259	0.00152588	
4.97437	0.641479	0.000457764	
4.97406	0.644226	0.000915527	
4.97437	0.646057	0.000610352	
4.97437	0.649109	0.000762939	
4.97437	0.650024	0.000305176	
4.97833	0.65155	-0.000152588	
4.97864	0.653687	0.000305176	
4.97986	0.655823	0.000152588	
4.97864	0.658569	0.000457764	
4.97925	0.65918	0.000457764	
4.97864	0.661621	0.000305176	
4.97925	0.664063	0.000915527	
4.97894	0.665283	0.00106812	
4.97864	0.666199	0.000457764	
4.97925	0.668945	0.000610352	
4.97894	0.669556	0.000457764	
4.97955	0.671387	0.000457764	
4.97864	0.673828	0.000457764	
4.97864	0.674438	0.000305176	
4.97986	0.675964	0	
4.97925	0.678406	0	
4.9826	0.679626	0.000915527	
4.98352	0.678711	0	
4.98383	0.680542	0.000305176	
4.98413	0.683594	0.000305176	
4.98413	0.684509	0.000915527	
4.98383	0.684814	0.000610352	
4.98444	0.686035	0.000305176	
4.98413	0.687256	0.000457764	
4.98413	0.689697	0.000915527	
4.98413	0.689392	0.000152588	
4.98383	0.690918	0.000305176	
4.98413	0.69397	-0.000152588	
4.98444	0.694275	0	
4.98444	0.69458	0	
4.98352	0.69397	0.000457764	
4.98444	0.695496	0.000457764	
4.98779	0.698242	0.000152588	
4.98932	0.698547	0.000610352	
4.98901	0.700073	0.00152588	
4.98962	0.699463	0.000610352	
4.98901	0.698547	0.000305176	
4.98871	0.700684	0.000610352	
4.98962	0.70343	0.000457764	
4.98901	0.704346	0.000610352	
4.98901	0.704651	-0.000152588	
4.98901	0.704346	0	
4.98901	0.704346	0.000305176	
4.98901	0.704041	0	
4.98871	0.704956	0.000305176	
4.98871	0.708008	0.000152588	
4.99023	0.710144	0.000762939	
4.99237	0.709534	0.00106812	
4.9939	0.709839	0.000457764	
4.9942	0.709229	0.000762939	
4.9939	0.708618	0.00106812	
4.99359	0.708923	0.000610352	
4.9942	0.709229	0.000915527	
4.99451	0.709534	0.000152588	
4.9939	0.708923	-0.000305176	
4.99329	0.709839	-0.000152588	
4.99451	0.709534	0.000457764	
4.99359	0.709534	0.000457764	
4.99359	0.709229	0.000305176	
4.99359	0.709229	0.000305176	
4.99451	0.709229	0.000915527	
4.99817	0.709534	0.000457764	
4.99878	0.709229	0.000610352	
4.99878	0.709229	0.000152588	
4.99878	0.709229	0.000610352	
4.99878	0.709534	0	
4.99939	0.708923	0	
4.99847	0.709229	-0.000152588	
4.99908	0.709229	0.000305176	
4.99847	0.708923	0	
4.99908	0.709229	0	
4.99908	0.709229	0.000152588	
4.99908	0.709534	0.000305176	
4.99908	0.708618	0.000610352	
4.99969	0.709229	0.00152588	
5.00183	0.708923	0.000457764	
5.00397	0.708923	0.000610352	
5.00427	0.708313	0.000457764	
5.00366	0.705566	0.000305176	
5.00427	0.704346	0.000305176	
5.00366	0.704041	0.000457764	
5.00366	0.704651	0	
5.00427	0.704346	0.000152588	
5.00366	0.703735	0.000305176	
5.00366	0.704041	0.000305176	
5.00366	0.703735	0	
5.00366	0.700684	0.000762939	
5.00488	0.698853	0.00152588	
5.00793	0.699768	0.000457764	
5.00854	0.699463	0.000457764	
5.00854	0.699768	0.000915527	
5.00854	0.699463	0.000457764	
5.00885	0.698853	0.000610352	
5.00824	0.694885	-0.000152588	
5.00793	0.69458	-0.000152588	
5.00885	0.694275	-0.000152588	
5.00854	0.69397	0.000305176	
5.00885	0.693359	0.000610352	
5.00854	0.690613	0.000457764	
5.00824	0.689697	0.000457764	
5.01038	0.689087	0.00106812	
5.01251	0.687866	0.000457764	
5.01404	0.685425	0.000152588	
5.01343	0.68512	-0.000152588	
5.01343	0.684814	0.000762939	
5.01404	0.684509	-0.000152588	
5.01373	0.683899	0.000610352	
5.01404	0.680847	-0.000305176	
5.01465	0.679626	0.000152588	
5.01343	0.679626	0	
5.01373	0.678711	0	
5.01404	0.67627	0.000305176	
5.01404	0.675049	0.000305176	
5.01648	0.673828	0.000152588	
5.01801	0.671387	0.00167847	
5.01831	0.669861	0.000610352	
5.01892	0.670166	0.000762939	
5.01831	0.668945	0.000610352	
5.01831	0.665894	0.000305176	
5.01801	0.665283	0.000457764	
5.01801	0.663452	0.000305176	
5.01831	0.661011	0.000457764	
5.01831	0.659485	0.000152588	
5.01923	0.657959	0.000457764	
5.01953	0.656128	0.000762939	
5.02197	0.654907	0.000305176	
5.02411	0.654297	0.000762939	
5.0235	0.65155	0.0012207	
5.0235	0.650635	0.000610352	
5.02472	0.648804	0.000305176	
5.0235	0.646362	0.000610352	
5.0235	0.645447	0.000762939	
5.0238	0.644226	0.000457764	
5.0235	0.64209	0	
5.0238	0.640259	-0.000305176	
5.02411	0.639038	-0.000152588	
5.02686	0.635986	0.000457764	
5.02869	0.634766	0.000152588	
5.02838	0.631409	0.000305176	
5.02808	0.631104	0.000762939	
5.02808	0.629272	0.000762939	
5.02869	0.627136	0.000762939	
5.02869	0.624695	0.000152588	
5.02869	0.621643	0.000305176	
5.02838	0.621338	0.000610352	
5.02869	0.619507	0.000305176	
5.03021	0.617676	0.000305176	
5.03204	0.61554	-0.000305176	
5.03326	0.611877	0	
5.03326	0.611572	0.000457764	
5.03296	0.609741	0.000152588	
5.03387	0.607605	0.000457764	
5.03357	0.604858	0.000305176	
5.03326	0.601807	0.000610352	
5.03296	0.600281	0.00167847	
5.03357	0.597839	0.000457764	
5.03296	0.596619	0.000305176	
5.03479	0.595398	0.000762939	
5.03754	0.592651	0.000762939	
5.03815	0.590515	0.000305176	
5.03784	0.586853	0	
5.03845	0.585938	0.000152588	
5.03845	0.582886	0.000457764	
5.03815	0.580444	-0.000152588	
5.03845	0.578613	0.000457764	
5.03876	0.575562	0.000305176	
5.03845	0.572815	0.000762939	
5.03906	0.571289	0.00106812	
5.04181	0.567627	0.000457764	
5.04272	0.566711	0.000610352	
5.04395	0.563049	0.000762939	
5.04333	0.560608	0.000610352	
5.04272	0.558167	0.000457764	
5.04303	0.556641	0	
5.04364	0.55603	-0.000305176	
5.04303	0.552673	-0.000457764	
5.04333	0.551453	0.000762939	
5.04456	0.548401	0.000152588	
5.04608	0.545959	0.000305176	
5.04761	0.543213	0.000152588	
5.04883	0.541382	0.000457764	
5.04822	0.537415	0.000457764	
5.04822	0.533752	0.000457764	
5.04822	0.531006	0.000305176	
5.04761	0.528564	0.000152588	
5.04791	0.526428	0.000305176	
5.04791	0.524292	0.000610352	
5.04944	0.522156	-0.000305176	
5.05188	0.518799	0.000305176	
5.0531	0.517273	0.000152588	
5.05371	0.513611	0.000305176	
5.0528	0.51178	0.000305176	
5.05341	0.508423	0.000305176	
5.0531	0.506897	0.000762939	
5.05341	0.504456	0.0012207	
5.05402	0.502014	0.000610352	
5.05402	0.499268	0.000152588	
5.05676	0.497131	0.000457764	
5.05829	0.493774	0.000305176	
5.05768	0.488892	0.000457764	
5.05859	0.487061	-0.000152588	
5.05798	0.484924	0.000305176	
5.05859	0.482178	0.000457764	
5.05798	0.479126	0.000457764	
5.05768	0.478516	0.000762939	
5.05951	0.474548	0.000152588	
5.06195	0.472717	0.000762939	
5.06317	0.46875	0.00152588	
5.06287	0.465698	0.000610352	
5.06409	0.462952	0.000305176	
5.06287	0.460205	0.000762939	
5.06287	0.458069	0.000610352	
5.06317	0.455017	0.000762939	
5.06287	0.453186	0.000457764	
5.06409	0.449829	-0.000305176	
5.06744	0.448608	-0.000152588	
5.06744	0.444641	0.000610352	
5.06836	0.440674	0	
5.06775	0.438843	0.000762939	
5.06836	0.436096	0.000305176	
5.06866	0.43396	0.000762939	
5.06836	0.430908	0.000610352	
5.06775	0.429077	0.000762939	
5.06866	0.424805	0.000305176	
5.07141	0.421143	0.000457764	
5.07233	0.419006	0.000305176	
5.07294	0.415344	0.00106812	
5.07324	0.413208	-0.000152588	
5.07355	0.410767	0.000152588	
5.07324	0.409241	-0.000152588	
5.07324	0.405273	0.000152588	
5.07385	0.400696	0.000305176	
5.0766	0.39917	0	
5.07813	0.396118	0.000305176	
5.0769	0.394592	0.00152588	
5.07751	0.390625	0.000762939	
5.07874	0.386658	0.000610352	
5.07843	0.384521	0.000457764	
5.07813	0.38147	0.000152588	
5.07904	0.379944	0.000305176	
5.08057	0.377197	0	
5.0824	0.374146	0	
5.08209	0.371094	0.000305176	
5.0824	0.367126	0.000457764	
5.08179	0.36499	0.000610352	
5.08179	0.361633	0.000305176	
5.08179	0.360413	0.000762939	
5.08331	0.356445	0.0012207	
5.08545	0.352478	0.000762939	
5.08667	0.350037	0.000762939	
5.08698	0.347595	0.000457764	
5.08698	0.345459	0.000915527	
5.08698	0.341797	0.000762939	
5.08667	0.337524	0.000152588	
5.08698	0.335388	-0.000152588	
5.09125	0.332336	-0.000152588	
5.09216	0.330811	0.000457764	
5.09247	0.327759	0	
5.09216	0.325928	0.000610352	
5.09216	0.321045	0.000457764	
5.09186	0.317993	0.000457764	
5.09247	0.315552	0.000762939	
5.09247	0.3125	0.000762939	
5.09552	0.311279	0.000610352	
5.09705	0.307617	0.000610352	
5.09705	0.303345	0.000152588	
5.09674	0.300903	0	
5.09674	0.298157	-0.000457764	
5.09613	0.296021	0.000152588	
5.09766	0.292969	0.000152588	
5.1001	0.290833	0.000305176	
5.10162	0.287781	0.000457764	
5.10284	0.283508	0.000152588	
5.10162	0.281067	0.000152588	
5.10193	0.279236	0.00152588	
5.10193	0.2771	0.000915527	
5.10223	0.273132	0.000610352	
5.10529	0.26947	0.000610352	
5.10742	0.267029	0.000457764	
5.10681	0.264282	0.000305176	
5.10681	0.261841	0.000152588	
5.10651	0.258789	0.000305176	
5.10742	0.256653	0.000152588	
5.10773	0.252686	0.000305176	
5.11017	0.249023	0.000305176	
5.11169	0.247803	0.000457764	
5.11139	0.244751	0.000915527	
5.112	0.24231	0.00137329	
5.1123	0.239563	0.000762939	
5.11169	0.237732	0.000610352	
5.11322	0.233765	0.000762939	
5.11505	0.229797	0	
5.11627	0.227356	0.000915527	
5.11658	0.224609	0.000152588	
5.11627	0.223083	-0.000305176	
5.11627	0.220032	-0.000152588	
5.11749	0.21759	0.000915527	
5.1178	0.214844	0.000305176	
5.12054	0.212708	0.000457764	
5.12207	0.209351	0.000305176	
5.12177	0.205688	0.000762939	
5.12207	0.203247	0.000457764	
5.12177	0.200806	0.000305176	
5.12207	0.198364	0	
5.12268	0.195313	0.000762939	
5.12573	0.193481	0	
5.12634	0.19043	0.000305176	
5.12756	0.188293	-0.000457764	
5.12726	0.184021	0.000457764	
5.12634	0.180664	0.000152588	
5.12817	0.177917	0.000305176	
5.13031	0.176086	0.000305176	
5.13123	0.173645	0.000305176	
5.13184	0.170898	0.000305176	
5.13153	0.168457	0.0012207	
5.13092	0.166016	0.000610352	
5.13184	0.16449	0.000305176	
5.13306	0.161133	0.000762939	
5.13489	0.158997	0.000152588	
5.13641	0.155945	0.000305176	
5.13702	0.154419	-0.000152588	
5.13641	0.149841	0.000152588	
5.13672	0.146484	0.000457764	
5.13733	0.143433	0.000152588	
5.14008	0.141907	0.000152588	
5.1416	0.138855	0.000152588	
5.1416	0.137024	0.00106812	
5.1413	0.134583	0.0012207	
5.14099	0.131836	0.000762939	
5.1416	0.129395	0.000610352	
5.14587	0.126343	0.000610352	
5.14618	0.125122	0.000457764	
5.14679	0.12207	0.000762939	
5.14679	0.119629	0	
5.14648	0.116272	-0.000152588	
5.14771	0.114441	0	
5.15015	0.11261	0.000457764	
5.15106	0.109558	0.000305176	
5.15198	0.106812	0.000305176	
5.15137	0.104675	0.000305176	
5.15198	0.102539	0.000762939	
5.15198	0.100098	0.000762939	
5.15503	0.0970459	0.000457764	
5.15656	0.0952148	0	
5.15656	0.0915527	0.000457764	
5.15656	0.0894165	0.000305176	
5.15625	0.0875854	0.000305176	
5.15717	0.085144	-0.000457764	
5.15961	0.0814819	0	
5.16144	0.0814819	0.000305176	
5.16113	0.0805664	-0.000152588	
5.16144	0.0784302	0.000457764	
5.16113	0.0759888	0.000152588	
5.16205	0.0732422	0.000152588	
5.16541	0.0717163	0.00106812	
5.16541	0.0686646	0.000762939	
5.16632	0.0665283	0.000457764	
5.16693	0.0640869	0.000762939	
5.16602	0.0616455	0.000762939	
5.16724	0.0585938	0.000762939	
5.16968	0.0570679	0.000152588	
5.17151	0.0540161	0.000305176	
5.1712	0.0531006	0.000152588	
5.1709	0.0509644	0.000152588	
5.17212	0.0494385	0.000762939	
5.17426	0.0466919	0.000305176	
5.17578	0.0442505	0.000915527	
5.17609	0.0424194	0.0012207	
5.17578	0.0387573	0.000762939	
5.17609	0.0387573	0.000762939	
5.17639	0.0375366	0.000610352	
5.17944	0.0338745	0.000457764	
5.18097	0.0320435	0.000457764	
5.18127	0.0292969	0.000457764	
5.18158	0.0271606	-0.000152588	
5.18127	0.0244141	0	
5.18188	0.0234985	0.000610352	
5.18494	0.0216675	0.000305176	
5.18585	0.0189209	0.000457764	
5.18585	0.017395	0	
5.18524	0.0140381	0.000457764	
5.18677	0.0128174	0.000305176	
5.18951	0.0128174	0.000610352	
5.19104	0.00976563	0.000152588	
5.19043	0.00732422	0.000762939	
5.19043	0.00457764	0.000152588	
5.19135	0.00457764	0.000610352	
5.1944	0.00213623	-0.000457764	
5.19623	-0.000305176	0	
5.19592	-0.00244141	-0.000152588	
5.19623	-0.00518799	0.000305176	
5.19562	-0.00610352	0.000152588	
5.19714	-0.00671387	-0.000152588	
5.19989	-0.00915527	0.000305176	
5.2005	-0.0106812	0.00183105	
5.20142	-0.0119019	0.000915527	
5.20142	-0.0146484	0.000457764	
5.20142	-0.017395	0.000305176	
5.20447	-0.0201416	0.000457764	
5.2063	-0.0201416	0.000457764	
5.20569	-0.0222778	0.000457764	
5.20569	-0.0247192	0.000610352	
5.2066	-0.0256348	0.000305176	
5.20874	-0.0268555	0.000610352	
5.21027	-0.0292969	0.000610352	
5.21027	-0.0299072	0.000152588	
5.21088	-0.0314331	0.000915527	
5.21179	-0.0338745	0.00137329	
5.21423	-0.0366211	0.000610352	
5.21515	-0.0390625	0.000457764	
5.21545	-0.039978	0.000457764	
5.21576	-0.0415039	0.000762939	
5.21545	-0.0442505	0.000610352	
5.21912	-0.0457764	0.000457764	
5.22034	-0.0466919	0	
5.22003	-0.0491333	-0.000305176	
5.22034	-0.0506592	0.000457764	
5.22003	-0.0509644	0.000305176	
5.22125	-0.0543213	0.000152588	
5.224	-0.0549316	0.000457764	
5.22522	-0.0549316	0.000610352	
5.22522	-0.0558472	0.000610352	
5.22461	-0.0585938	0.000305176	
5.22644	-0.0601196	-0.000152588	
5.22827	-0.06073	0.00106812	
5.23041	-0.0643921	0.000610352	
5.23071	-0.0650024	0.000457764	
5.23102	-0.0656128	-0.000457764	
5.23376	-0.0686646	0.000457764	
5.2356	-0.0695801	0.000152588	
5.23499	-0.0704956	0.000152588	
5.23499	-0.0738525	0.000457764	
5.23651	-0.0747681	0	
5.23773	-0.0756836	0.000305176	
5.23895	-0.0790405	0.00106812	
5.24017	-0.0796509	0.0012207	
5.23956	-0.0787354	0.000762939	
5.24078	-0.0799561	0.000457764	
5.24323	-0.0827026	0.000915527	
5.24475	-0.0845337	0.0012207	
5.24506	-0.0857544	0.000305176	
5.24536	-0.088501	0.000457764	
5.24597	-0.0891113	0.000152588	
5.24841	-0.0894165	0.000305176	
5.24963	-0.0912476	0.000610352	
5.24933	-0.093689	0.000152588	
5.24963	-0.0946045	0.000457764	
5.25055	-0.0949097	0.000915527	
5.25391	-0.0952148	0.000457764	
5.25452	-0.0979614	0.000610352	
5.25513	-0.0994873	0.000610352	
5.25543	-0.100708	0.000915527	
5.25543	-0.103149	0.000762939	
5.25879	-0.104675	0.000152588	
5.25909	-0.10437	-0.000152588	
5.25879	-0.105286	-0.000152588	
5.26062	-0.107727	0.000457764	
5.26337	-0.108643	0.000305176	
5.26459	-0.108643	0	
5.26489	-0.110474	0.000305176	
5.26459	-0.111694	0.000305176	
5.26581	-0.114441	0.000610352	
5.26855	-0.113831	0.000305176	
5.26947	-0.115356	0.000152588	
5.26978	-0.117798	0.000762939	
5.271	-0.118713	0	
5.27313	-0.118713	0.000457764	
5.27405	-0.120239	-0.000152588	
5.27496	-0.122681	-0.000152588	
5.27435	-0.124207	0.000305176	
5.27496	-0.124207	0.000152588	
5.27771	-0.124207	0.000305176	
5.27954	-0.126953	0	
5.27924	-0.129395	0.000152588	
5.27954	-0.128784	0.00137329	
5.27985	-0.130005	0.0012207	
5.28351	-0.132446	0.00106812	
5.28381	-0.133057	0.000610352	
5.28473	-0.134583	0.000762939	
5.28534	-0.133972	0.000610352	
5.28778	-0.134888	0	
5.289	-0.137939	0.000152588	
5.28931	-0.138245	-0.000152588	
5.28961	-0.138245	0.000152588	
5.29053	-0.139465	0.000305176	
5.29236	-0.142517	0.000152588	
5.29419	-0.143433	0.000915527	
5.29449	-0.143127	0.0012207	
5.29572	-0.143433	0.000610352	
5.29816	-0.144348	0.000762939	
5.29907	-0.1474	0.000915527	
5.29968	-0.148315	0.000762939	
5.30029	-0.149231	0.000610352	
5.30334	-0.149536	0	
5.30365	-0.152588	0	
5.30426	-0.152588	-0.000457764	
5.30396	-0.153503	0.000152588	
5.30487	-0.153198	0.000457764	
5.30792	-0.153503	0.000457764	
5.30884	-0.157166	0.000305176	
5.30884	-0.157471	0	
5.30975	-0.157471	0.000457764	
5.31219	-0.157776	0.000152588	
5.31342	-0.158997	0.000152588	
5.31464	-0.161438	0.000915527	
5.31494	-0.162659	0.000305176	
5.31677	-0.162964	0.000457764	
5.3183	-0.162659	0	
5.3186	-0.163879	0.000152588	
5.31891	-0.166626	0	
5.31952	-0.167236	0.000152588	
5.32257	-0.167847	0.000610352	
5.32349	-0.167236	0	
5.32471	-0.169067	-0.000152588	
5.32532	-0.171814	0.00137329	
5.32806	-0.172119	0.000915527	
5.32837	-0.172729	0.000762939	
5.32867	-0.172424	0.000457764	
5.3299	-0.173645	0.000457764	
5.33264	-0.175781	0.000762939	
5.33356	-0.177917	0.000305176	
5.33386	-0.177612	0.000152588	
5.33447	-0.177307	0.000457764	
5.33752	-0.178223	0.000457764	
5.33813	-0.178528	0.000457764	
5.33813	-0.180969	0.000305176	
5.33997	-0.182495	0.00106812	
5.34241	-0.1828	0.00106812	
5.34302	-0.1828	0.000457764	
5.34424	-0.183716	0.000762939	
5.34332	-0.186768	0.000610352	
5.34424	-0.187988	0.000762939	
5.34698	-0.187378	0.000915527	
5.34912	-0.187683	0.000610352	
5.34821	-0.187683	-0.000152588	
5.34973	-0.188599	-0.000305176	
5.35248	-0.191345	0.000457764	
5.3537	-0.192566	0.000457764	
5.3537	-0.192566	0.000305176	
5.35492	-0.192261	0.000457764	
5.35675	-0.193176	0.000457764	
5.35858	-0.193481	0.000610352	
5.35889	-0.196533	0.000762939	
5.35919	-0.197144	0.000152588	
5.36224	-0.197449	0.000915527	
5.36346	-0.197144	0.000762939	
5.36316	-0.197449	0.000457764	
5.36407	-0.197754	0	
5.36713	-0.201416	0	
5.36774	-0.202026	0	
5.36896	-0.202026	0	
5.36926	-0.202332	0	
5.3714	-0.202637	0	
5.37292	-0.203247	0	
5.37323	-0.205994	0.0012207	
5.37445	-0.20752	0.00137329	
5.37628	-0.20752	0.000762939	
5.37811	-0.207214	0.000762939	
5.37811	-0.20752	0.000762939	
5.37964	-0.20813	0.00106812	
5.38177	-0.210876	0.000457764	
5.38269	-0.212402	0.000457764	
5.38269	-0.212097	0.000305176	
5.38361	-0.211792	0.000457764	
5.38696	-0.212708	0.000457764	
5.38788	-0.212708	0	
5.38788	-0.215759	0.000610352	
5.38879	-0.217285	0.00106812	
5.39185	-0.216675	0.000762939	
5.39276	-0.216675	0.000762939	
5.39307	-0.217285	0.000457764	
5.39398	-0.21698	0.000915527	
5.39612	-0.217896	0.00106812	
5.39734	-0.221558	0.000610352	
5.39764	-0.221863	-0.000152588	
5.39917	-0.222168	-0.000305176	
5.40161	-0.222168	0.000305176	
5.40283	-0.221863	0.000152588	
5.40436	-0.222778	0.000610352	
5.40649	-0.225525	-0.000305176	
5.40741	-0.226746	0.000457764	
5.40771	-0.227661	0.000762939	
5.40833	-0.226746	0.000915527	
5.41107	-0.226746	0.000305176	
5.41229	-0.227661	0.000915527	
5.4129	-0.228271	0.000610352	
5.41351	-0.230713	0.000152588	
5.41595	-0.232239	-0.000152588	
5.41718	-0.231934	0	
5.41748	-0.231934	-0.000152588	
5.4187	-0.231628	-0.000152588	
5.42084	-0.231628	-0.000152588	
5.42236	-0.232544	0.000152588	
5.42236	-0.235291	0.000457764	
5.42328	-0.236511	0.00106812	
5.42572	-0.236511	0.00137329	
5.42725	-0.236206	0.000762939	
5.42847	-0.236511	0.000457764	
5.43091	-0.236816	0.000457764	
5.43213	-0.239868	0.000915527	
5.43304	-0.241699	0.000152588	
5.43396	-0.241089	0.000152588	
5.4364	-0.240784	0.000305176	
5.43793	-0.240784	0.000457764	
5.43732	-0.241699	0.000610352	
5.43884	-0.24292	0.000152588	
5.44128	-0.244751	0.000915527	
5.44189	-0.246277	0.000762939	
5.4422	-0.246582	0.000762939	
5.44373	-0.246887	0.000610352	
5.44617	-0.245972	0.000762939	
5.44708	-0.246277	0.000610352	
5.44861	-0.247192	0.000915527	
5.45135	-0.249939	0.000305176	
5.45197	-0.25177	-0.000305176	
5.45197	-0.25116	-0.000457764	
5.45319	-0.250854	0.000762939	
5.45532	-0.250854	0.000457764	
5.45685	-0.250854	0.000152588	
5.45685	-0.252686	0.000152588	
5.45868	-0.254822	0.000457764	
5.46082	-0.256042	0.00106812	
5.46173	-0.256348	0.000762939	
5.46295	-0.255737	0.000305176	
5.4657	-0.256348	0.000915527	
5.46692	-0.256042	0.000915527	
5.46722	-0.257263	0.000305176	
5.46844	-0.260315	0	
5.47028	-0.26062	0.000152588	
5.4715	-0.26062	-0.000152588	
5.47119	-0.260925	-0.000152588	
5.4718	-0.26123	0.000152588	
5.47546	-0.262146	0.000305176	
5.47668	-0.264587	-0.000152588	
5.4776	-0.265198	0.00137329	
5.48065	-0.265198	0.00137329	
5.48126	-0.266418	0.000762939	
5.48218	-0.266113	0.000305176	
5.48309	-0.266113	0.000457764	
5.48523	-0.267029	0.000915527	
5.48645	-0.26947	0.000457764	
5.48828	-0.270691	0.000152588	
5.49042	-0.270691	0.000152588	
5.49164	-0.271301	0	
5.49194	-0.270691	0.000457764	
5.49286	-0.270691	-0.000152588	
5.49561	-0.271912	0.000762939	
5.49652	-0.275269	0.00106812	
5.49774	-0.275574	0.000762939	
5.49988	-0.275879	0.000457764	
5.5011	-0.276184	0.000457764	
5.5011	-0.275574	0.000915527	
5.50232	-0.275269	0.00106812	
5.50537	-0.2771	0.000457764	
5.50659	-0.279846	-0.000152588	
5.50629	-0.280457	-0.000610352	
5.50751	-0.280762	0.000305176	
5.51086	-0.281677	0.000610352	
5.51117	-0.280762	0.000152588	
5.51208	-0.280762	0.000152588	
5.51514	-0.281982	0.000305176	
5.51666	-0.284424	0.000915527	
5.51666	-0.285645	0.00106812	
5.51758	-0.285339	0	
5.52002	-0.28595	0.000915527	
5.52094	-0.285645	0.000457764	
5.52216	-0.285339	0	
5.5246	-0.286255	0	
5.52582	-0.289307	0.000152588	
5.52582	-0.290527	0.000457764	
5.52734	-0.290833	0.000152588	
5.52979	-0.290527	0.000305176	
5.5304	-0.290833	0.000305176	
5.53223	-0.290833	0	
5.53497	-0.291138	0.00137329	
5.53528	-0.294189	0.00137329	
5.53772	-0.295715	0.000457764	
5.54016	-0.295105	0.000152588	
5.54108	-0.295105	0.000610352	
5.54077	-0.295105	0.000762939	
5.5423	-0.29541	0.000305176	
5.54474	-0.295715	0.000305176	
5.54565	-0.299377	0.000152588	
5.54688	-0.300293	0.000152588	
5.54993	-0.300293	0.000152588	
5.54993	-0.300293	0	
5.55054	-0.300598	0.000762939	
5.55176	-0.299683	0.000762939	
5.55389	-0.300598	0.000457764	
5.55573	-0.304565	0.000762939	
5.55664	-0.304871	0.000762939	
5.55847	-0.305786	0.000762939	
5.5603	-0.304871	0.000915527	
5.56061	-0.305176	0.000152588	
5.56122	-0.305481	0.000152588	
5.56458	-0.306091	-0.000762939	
5.56519	-0.309753	0.000610352	
5.56732	-0.310364	0.000305176	
5.56946	-0.310669	0.000610352	
5.57007	-0.310364	0	
5.57098	-0.310364	0.000457764	
5.57404	-0.310364	0.000610352	
5.57526	-0.310974	0.000762939	
5.57526	-0.314026	0	
5.57678	-0.314636	0.000762939	
5.57922	-0.314941	0.000457764	
5.57983	-0.314636	0.000305176	
5.58136	-0.314636	0	
5.58411	-0.314941	0	
5.58533	-0.315857	-0.000152588	
5.58655	-0.318604	-0.000152588	
5.58899	-0.319519	0	
5.59082	-0.319824	0.000152588	
5.59021	-0.320129	-0.000152588	
5.59143	-0.319519	0.0012207	
5.59387	-0.319824	0.0012207	
5.59479	-0.319824	0.000457764	
5.59662	-0.323486	0.000457764	
5.59845	-0.323486	0.000915527	
5.59998	-0.324402	0.00106812	
5.60028	-0.324707	0.000457764	
5.6015	-0.324707	0	
5.60364	-0.323792	0.000305176	
5.60577	-0.325928	0.000152588	
5.60577	-0.328674	0.000610352	
5.60883	-0.329285	0	
5.61005	-0.329285	0.000610352	
5.61096	-0.32959	0.000915527	
5.6134	-0.329285	0.000915527	
5.61493	-0.329285	0.000915527	
5.61554	-0.330505	0.000762939	
5.6192	-0.333252	0.000610352	
5.62042	-0.334473	0.000915527	
5.62012	-0.334167	0.000305176	
5.62073	-0.334778	-0.000152588	
5.62317	-0.335083	-0.000457764	
5.62531	-0.334778	0.000457764	
5.62592	-0.335083	0.000762939	
5.62836	-0.33844	0	
5.62897	-0.339661	0.000152588	
5.6308	-0.33905	0.000305176	
5.63354	-0.339355	0.000762939	
5.63477	-0.339355	0.000762939	
5.63507	-0.339355	0.000305176	
5.63568	-0.339661	0.000915527	
5.63873	-0.343628	0.000305176	
5.63965	-0.343628	0.000457764	
5.64087	-0.344238	0	
5.64331	-0.343933	-0.000152588	
5.64484	-0.344238	0.000152588	
5.64545	-0.345154	0	
5.6488	-0.344849	-0.000305176	
5.65002	-0.348206	0	
5.65063	-0.349426	0.000457764	
5.65247	-0.349121	0.00106812	
5.65399	-0.349121	0.000915527	
5.65491	-0.348816	0.000915527	
5.65582	-0.349121	0.000305176	
5.65887	-0.350342	0.000915527	
5.65979	-0.353394	0.000610352	
5.6601	-0.354614	0.000762939	
5.66284	-0.354614	-0.000305176	
5.66437	-0.354004	0.000152588	
5.66589	-0.354004	0	
5.66803	-0.354614	0.000152588	
5.66895	-0.354004	0.000305176	
5.67078	-0.354919	0.000610352	
5.67352	-0.357056	0.000457764	
5.67474	-0.358582	0.00106812	
5.67444	-0.359192	0.000457764	
5.67566	-0.358582	0.000457764	
5.67749	-0.358887	0.000762939	
5.6781	-0.359497	0.00106812	
5.67932	-0.360107	0.000457764	
5.68237	-0.362854	0	
5.68329	-0.364075	-0.000305176	
5.68481	-0.36377	0.000762939	
5.68848	-0.36377	0.000762939	
5.68909	-0.364075	0	
5.68939	-0.364075	0.000305176	
5.69275	-0.365295	0.000152588	
5.69366	-0.367737	0.000915527	
5.69366	-0.368958	0.00106812	
5.69489	-0.369263	0	
5.69763	-0.369263	0.000457764	
5.69885	-0.368958	0.000152588	
5.69977	-0.368652	0.000457764	
5.70251	-0.369873	0.000305176	
5.70374	-0.372925	-0.000152588	
5.70465	-0.374451	0.000457764	
5.7077	-0.374146	0.000305176	
5.70801	-0.373535	0.000152588	
5.70953	-0.373535	0.000457764	
5.71289	-0.373535	0	
5.7132	-0.37384	0.00137329	
5.71411	-0.374451	0.00106812	
5.71625	-0.377197	0.000457764	
5.71808	-0.378418	0.000152588	
5.71869	-0.378418	0.000305176	
5.72174	-0.378418	0.000305176	
5.72327	-0.378723	0.000457764	
5.72388	-0.378723	0.000152588	
5.72388	-0.379944	0.000305176	
5.72662	-0.382385	0.000457764	
5.72784	-0.383301	0.000457764	
5.72968	-0.383911	-0.000152588	
5.73273	-0.383606	0.000762939	
5.73334	-0.383301	0.000610352	
5.73456	-0.382996	0.000610352	
5.737	-0.384216	0.000610352	
5.73792	-0.387573	0.000610352	
5.73914	-0.387573	0.000915527	
5.74219	-0.388489	0.000762939	
5.7428	-0.388489	0.000457764	
5.74402	-0.388489	0	
5.74646	-0.387878	-0.000457764	
5.74799	-0.388184	0.000762939	
5.74921	-0.389709	0.000610352	
5.75195	-0.392761	0	
5.75287	-0.393372	0.000152588	
5.75287	-0.393982	0.000305176	
5.75409	-0.393372	0.00106812	
5.75714	-0.393372	0.000915527	
5.75806	-0.393677	-0.000152588	
5.75867	-0.394592	0.000610352	
5.76202	-0.397339	0.000305176	
5.76233	-0.397949	0.000305176	
5.76385	-0.398254	0.000152588	
5.7663	-0.398254	-0.000457764	
5.76813	-0.398254	0.000152588	
5.76874	-0.397949	0	
5.77179	-0.39856	0	
5.77271	-0.399475	0.000762939	
5.77393	-0.402527	0	
5.77667	-0.402832	0.00106812	
5.77698	-0.403137	0.000915527	
5.7782	-0.403137	0.000915527	
5.78094	-0.403442	0.000457764	
5.78247	-0.402832	0.000762939	
5.78217	-0.404663	0.000610352	
5.78369	-0.40741	0.000610352	
5.78644	-0.40802	0.000152588	
5.78705	-0.40863	0	
5.78827	-0.407715	0.000457764	
5.79102	-0.40863	0.000610352	
5.79224	-0.408325	0	
5.79376	-0.407715	0.000915527	
5.79651	-0.408936	0.000610352	
5.79742	-0.412292	0.00106812	
5.79865	-0.412903	0.000762939	
5.80048	-0.413208	0.000762939	
5.80261	-0.413208	0.000915527	
5.80353	-0.412903	0.000762939	
5.80658	-0.413208	0.000457764	
5.8075	-0.413818	0.000152588	
5.8078	-0.413818	-0.000305176	
5.81085	-0.41687	0.000152588	
5.81238	-0.417786	0.000457764	
5.81268	-0.418091	0.000457764	
5.81329	-0.418396	0.000305176	
5.81635	-0.418396	0	
5.81726	-0.417786	0.000915527	
5.81848	-0.418701	0.000915527	
5.82062	-0.421448	0.000305176	
5.82245	-0.423279	0.000915527	
5.82336	-0.422974	0.000457764	
5.82611	-0.422363	0.000915527	
5.82672	-0.422668	-0.000152588	
5.82855	-0.423279	0.000152588	
5.83099	-0.422668	0.000152588	
5.8316	-0.424194	0.000152588	
5.83282	-0.426331	0.000305176	
5.83588	-0.427856	0.000610352	
5.83679	-0.427551	0	
5.83832	-0.427551	0.00106812	
5.83984	-0.427856	0.000915527	
5.84167	-0.427551	0.000762939	
5.84229	-0.427246	0.000610352	
5.84564	-0.428467	0.000305176	
5.84686	-0.431519	0.000762939	
5.84656	-0.432434	0.000762939	
5.84747	-0.43335	0	
5.85083	-0.432739	0.000305176	
5.85144	-0.433044	0	
5.85327	-0.432129	0.000610352	
5.85541	-0.432739	0	
5.85602	-0.43396	0.000762939	
5.85724	-0.436707	0.000305176	
5.8606	-0.436707	0.00106812	
5.86121	-0.437622	0.000915527	
5.86212	-0.437622	0.000457764	
5.86487	-0.437622	0.000610352	
5.86639	-0.437927	0.000305176	
5.8667	-0.437317	0.000457764	
5.86945	-0.437622	0	
5.87097	-0.437927	-0.000152588	
5.87189	-0.441284	0.000305176	
5.87433	-0.44281	0.000457764	
5.87585	-0.44281	-0.000152588	
5.87616	-0.4422	0.000457764	
5.87708	-0.442505	0.000305176	
5.87952	-0.441895	0.000915527	
5.88104	-0.4422	0.000762939	
5.88196	-0.443115	0.000152588	
5.88531	-0.446167	0.000915527	
5.88562	-0.447693	0.000152588	
5.88684	-0.447693	0.000152588	
5.88989	-0.447388	0	
5.8905	-0.447083	0	
5.89203	-0.447693	0.000610352	
5.89386	-0.447388	0.000152588	
5.89569	-0.447693	0.000152588	
5.89661	-0.448303	0.000305176	
5.89966	-0.451355	-0.000152588	
5.90057	-0.452271	0.000915527	
5.90179	-0.452271	0.000915527	
5.90485	-0.452271	0.000915527	
5.90576	-0.45166	0.000457764	
5.90576	-0.45166	0.000610352	
5.90637	-0.452271	0.000762939	
5.90942	-0.452271	0.000152588	
5.91095	-0.453491	0.000152588	
5.91187	-0.456543	0.000305176	
5.91492	-0.457458	-0.000152588	
5.91522	-0.457153	0.000610352	
5.91675	-0.457458	0.000305176	
5.9198	-0.457153	0.000915527	
5.92072	-0.457153	0.000762939	
5.92133	-0.456848	0.000915527	
5.92407	-0.457764	0.000762939	
5.92529	-0.457764	0.000305176	
5.92651	-0.46051	0.000762939	
5.92896	-0.462646	0.000457764	
5.92987	-0.462341	0.000305176	
5.93048	-0.462952	0.000305176	
5.93079	-0.461731	-0.000305176	
5.93445	-0.462646	0.000305176	
5.93536	-0.462341	0.000457764	
5.93597	-0.461731	0.000152588	
5.93933	-0.462036	0.000305176	
5.94086	-0.462646	0.000610352	
5.94086	-0.465698	0.000915527	
5.94391	-0.466614	0.0012207	
5.94513	-0.467224	0	
5.94666	-0.467529	0.000610352	
5.9491	-0.467529	0.000152588	
5.95032	-0.466309	0.000915527	
5.95154	-0.467224	0.000457764	
5.95367	-0.466919	-0.000610352	
5.9552	-0.466919	0.000152588	
5.9552	-0.466309	0.000152588	
5.95612	-0.46814	0.000152588	
5.95917	-0.470276	0.000457764	
5.96069	-0.471191	0.000152588	
5.9613	-0.471802	0.00106812	
5.96405	-0.471802	0.00106812	
5.96436	-0.471802	0.000762939	
5.9668	-0.472107	0.000457764	
5.96924	-0.471802	0.000610352	
5.97015	-0.471497	0.000610352	
5.97137	-0.471802	0.000762939	
5.97321	-0.472107	0.000152588	
5.97504	-0.471497	0.000152588	
5.97565	-0.472412	0.000457764	
5.9787	-0.475159	0.000305176	
5.98022	-0.476074	-0.000152588	
5.98022	-0.476379	0.000762939	
5.98114	-0.476379	0.000457764	
5.98328	-0.476074	0.00106812	
5.98419	-0.476379	0.000457764	
5.98633	-0.47699	0.000762939	
5.98846	-0.476379	0.000610352	
5.98969	-0.476379	0.000610352	
5.99121	-0.476685	0	
5.99335	-0.47699	-0.000152588	
5.99487	-0.476379	-0.000610352	
5.99579	-0.476685	0.000305176	
5.99854	-0.476685	0.000457764	
5.99945	-0.475769	0.000305176	
5.99945	-0.477295	0.000152588	
6.00037	-0.480957	0.000457764	
6.00342	-0.481262	0.000762939	
6.00433	-0.480957	0.000762939	
6.00616	-0.482178	0.000152588	
6.0083	-0.481873	0.000610352	
6.00983	-0.481567	0.000305176	
6.00952	-0.481262	0.000610352	
6.01318	-0.482178	0.000152588	
6.0144	-0.482178	-0.000610352	
6.01593	-0.481262	0	
6.01807	-0.481567	0.000457764	
6.01898	-0.481567	-0.000152588	
6.01868	-0.481262	0.000457764	
6.02051	-0.481567	0.000152588	
6.02234	-0.481567	0.000762939	
6.02386	-0.482178	0.0012207	
6.02417	-0.480957	0.000915527	
6.02814	-0.481567	0.000305176	
6.02814	-0.480957	0.000915527	
6.02997	-0.481262	0.000610352	
6.03271	-0.481262	0.000305176	
6.03455	-0.481262	-0.000152588	
6.03546	-0.481262	0.000152588	
6.03821	-0.481567	0.000457764	
6.03943	-0.480957	0.000457764	
6.03851	-0.481262	0.000152588	
6.03912	-0.481567	0.000762939	
6.04279	-0.480957	0.000152588	
6.0437	-0.481567	0.00106812	
6.04523	-0.481567	0.000610352	
6.04767	-0.481567	0.000457764	
6.04858	-0.482178	0.000762939	
6.0498	-0.481873	0.000457764	
6.05286	-0.481262	0.000152588	
6.05347	-0.481567	0.000457764	
6.05469	-0.481262	-0.000457764	
6.0553	-0.481567	0.000305176	
6.05804	-0.481262	0.000457764	
6.05865	-0.481567	0.000152588	
6.06018	-0.481567	0	
6.06171	-0.480957	0.000457764	
6.06384	-0.480957	0.000610352	
6.06476	-0.481567	0.000457764	
6.0675	-0.480652	0	
6.06842	-0.4776	0.000457764	
6.06934	-0.476379	0.000457764	
6.07025	-0.47699	0.000457764	
6.07239	-0.47699	-0.000152588	
6.073	-0.47699	-0.000610352	
6.07483	-0.476379	0.000457764	
6.07727	-0.476379	0.000152588	
6.0788	-0.476074	-0.000152588	
6.07971	-0.476074	0	
6.08276	-0.477295	0	
6.08337	-0.47699	0.000915527	
6.0849	-0.475159	0.00106812	
6.08765	-0.472717	0.000610352	
6.08826	-0.471802	0.000152588	
6.08887	-0.471497	0.000610352	
6.08978	-0.471497	0.000915527	
6.09253	-0.471802	0.000915527	
6.09344	-0.472107	0.000305176	
6.09436	-0.470886	-0.000152588	
6.09711	-0.467529	0	
6.09833	-0.466919	0.000457764	
6.09924	-0.466919	0.000152588	
6.10199	-0.467529	0.000457764	
6.10321	-0.467224	0.000915527	
6.10352	-0.466003	0.00137329	
6.10504	-0.463257	0.000457764	
6.10748	-0.462036	0.000457764	
6.10809	-0.462036	0.000610352	
6.10901	-0.462646	0.000915527	
6.11176	-0.462036	0.000762939	
6.11359	-0.458679	0.000152588	
6.11328	-0.456848	-0.000305176	
6.11633	-0.456543	0.000152588	
6.11755	-0.457153	0	
6.11816	-0.456238	0.000457764	
6.11969	-0.453491	0.000457764	
6.12183	-0.452881	0.000152588	
6.12305	-0.452576	0.000915527	
6.12396	-0.450745	0.000457764	
6.1264	-0.448914	0	
6.12854	-0.447693	0.000610352	
6.12946	-0.446472	0.000457764	
6.1322	-0.444031	0.000915527	
6.13342	-0.442505	0	
6.13312	-0.441895	-0.000457764	
6.13464	-0.441284	0.000305176	
6.13647	-0.438232	0.000457764	
6.1377	-0.437622	0.000305176	
6.13922	-0.436707	0.000762939	
6.14166	-0.433655	0.000152588	
6.14288	-0.432739	0.000610352	
6.1438	-0.431824	0.000915527	
6.14624	-0.429077	0.00106812	
6.14838	-0.428467	0.000152588	
6.14807	-0.426331	0.000457764	
6.14838	-0.424194	0.000457764	
6.15204	-0.421753	0.000610352	
6.15265	-0.419006	-0.000152588	
6.15326	-0.418091	0.000457764	
6.1557	-0.417175	0.000152588	
6.15753	-0.415039	0.000610352	
6.15753	-0.412598	0.000152588	
6.15845	-0.409241	0.000610352	
6.16089	-0.40802	0.000457764	
6.16241	-0.40741	0.00137329	
6.16364	-0.404358	0.000915527	
6.16608	-0.401917	0.000305176	
6.1673	-0.39978	0.000915527	
6.16882	-0.397339	0.000610352	
6.17157	-0.394592	0.000305176	
6.17218	-0.392456	0.000457764	
6.17218	-0.389099	-0.000305176	
6.17279	-0.388184	0.000457764	
6.17676	-0.384827	0.000457764	
6.17706	-0.382996	0	
6.17828	-0.379944	0.000305176	
6.18164	-0.378113	0.000457764	
6.18225	-0.375366	0.000762939	
6.18347	-0.37323	0.000610352	
6.18561	-0.370483	-0.000152588	
6.18652	-0.368347	0.000610352	
6.18744	-0.364075	0.000305176	
6.18774	-0.359802	0.000457764	
6.1908	-0.358276	0.000305176	
6.19171	-0.355225	-0.000457764	
6.19354	-0.353088	0.000762939	
6.19629	-0.350952	0.000457764	
6.19629	-0.348511	0.000305176	
6.1969	-0.344849	0.000305176	
6.19781	-0.340576	0.000152588	
6.20056	-0.33844	0.000610352	
6.20148	-0.334473	0.000762939	
6.2027	-0.3302	0.000762939	
6.20483	-0.328674	0.000152588	
6.20697	-0.325623	0.000457764	
6.20758	-0.323486	0.000305176	
6.21002	-0.319824	0.000610352	
6.21185	-0.315857	-0.000152588	
6.21185	-0.314026	0.000305176	
6.21246	-0.310059	0.000152588	
6.21521	-0.305481	0.000610352	
6.21674	-0.300903	0.000152588	
6.21796	-0.299377	0.000915527	
6.22009	-0.295715	0.000762939	
6.22131	-0.291748	0.0012207	
6.22162	-0.289612	0.000152588	
6.22345	-0.28595	0.000915527	
6.22559	-0.281372	0.000610352	
6.2265	-0.276184	0.000762939	
6.22772	-0.274048	0.000610352	
6.23016	-0.270691	0.000305176	
6.23138	-0.266418	-0.000305176	
6.2323	-0.262756	0.000152588	
6.23474	-0.260315	0.000305176	
6.23657	-0.256653	0	
6.23627	-0.250854	0.000305176	
6.23749	-0.247498	0.000152588	
6.24084	-0.245056	0.000457764	
6.24084	-0.241089	0.000915527	
6.24268	-0.237122	0.000152588	
6.24573	-0.231934	0.000305176	
6.24573	-0.227051	0.000152588	
6.24634	-0.222778	0.000610352	
6.24725	-0.220947	0.000305176	
6.25	-0.217285	-0.000305176	
6.25122	-0.212097	-0.000152588	
6.25183	-0.20752	0	
6.2558	-0.202942	0.000457764	
6.2561	-0.198975	0.000152588	
6.2561	-0.195923	0.000152588	
6.25702	-0.191956	0.000762939	
6.25916	-0.187073	0.000915527	
6.26129	-0.18219	0.00137329	
6.2619	-0.177612	0.000152588	
6.26495	-0.172729	0.000610352	
6.26617	-0.167542	0.000152588	
6.26678	-0.16449	0.000762939	
6.26984	-0.162048	-0.000152588	
6.27106	-0.158386	0.000305176	
6.27197	-0.153198	0.000152588	
6.27228	-0.148315	0.000762939	
6.27472	-0.143127	0.000305176	
6.27594	-0.138855	0.000762939	
6.27777	-0.133667	0.000457764	
6.27991	-0.128784	0.00137329	
6.28082	-0.123901	0.000610352	
6.28143	-0.119324	0.000610352	
6.28204	-0.115051	0.000762939	
6.28479	-0.110474	0.000762939	
6.28601	-0.108337	0.000457764	
6.28723	-0.104675	0.000457764	
6.28967	-0.0994873	-0.000305176	
6.2912	-0.0942993	0.000152588	
6.2912	-0.0894165	0.000915527	
6.2912	-0.0845337	0.000152588	
6.29456	-0.0793457	0.000152588	
6.29578	-0.0750732	0.000152588	
6.29669	-0.0708008	0.000762939	
6.30005	-0.0646973	0.000610352	
6.30096	-0.06073	0.000305176	
6.30066	-0.0552368	0.000610352	
6.30219	-0.050354	0.000762939	
6.30432	-0.0457764	0.000305176	
6.30524	-0.0411987	-0.000152588	
6.30676	-0.0360107	-0.000610352	
6.3089	-0.0308228	0.000152588	
6.31012	-0.0262451	0.000305176	
6.31042	-0.0204468	0	
6.31134	-0.0164795	0	
6.31317	-0.0115967	-0.000305176	
6.31531	-0.00610352	0.000610352	
6.31622	-0.0012207	0.00106812	
6.31897	0.00305176	0.00137329	
6.3205	0.00793457	0	
6.32019	0.0134277	0.000457764	
6.3208	0.0180054	0	
6.32416	0.0231934	0.000457764	
6.32507	0.027771	0	
6.32629	0.032959	0.000305176	
6.32935	0.0375366	0.000152588	
6.32996	0.0427246	0.000762939	
6.32996	0.0476074	0.000152588	
6.33057	0.0527954	0.000457764	
6.33392	0.0570679	0.000762939	
6.33423	0.0622559	0.00106812	
6.33667	0.0668335	0.000457764	
6.3385	0.0723267	0.000610352	
6.33942	0.0772095	0.000762939	
6.3385	0.0811768	0.000610352	
6.34064	0.0866699	0.000305176	
6.34399	0.0909424	0.000610352	
6.3443	0.0958252	-0.000305176	
6.34583	0.101318	0	
6.34857	0.105896	0.000915527	
6.34888	0.111084	0	
6.3501	0.115662	0.000915527	
6.3504	0.121155	0.000305176	
6.35315	0.125427	0.000762939	
6.35437	0.13031	0.000610352	
6.35529	0.135193	0.000457764	
6.35803	0.139465	0.000457764	
6.35895	0.144958	0.000610352	
6.35925	0.149231	0.000457764	
6.36047	0.150757	0	
6.36292	0.15564	-0.000305176	
6.36414	0.159302	0	
6.36566	0.164795	0.000152588	
6.3681	0.168762	0.000305176	
6.36902	0.174255	-0.000152588	
6.36963	0.179443	0	
6.36963	0.183716	0.000762939	
6.37268	0.188904	0.000915527	
6.37451	0.194092	0.0012207	
6.37512	0.19928	-0.000152588	
6.37817	0.203552	0.000915527	
6.37909	0.209045	0.000305176	
6.3797	0.213318	0.000915527	
6.38062	0.219116	-0.000152588	
6.38336	0.223694	0.000457764	
6.38428	0.228271	0	
6.38428	0.232544	0.000305176	
6.3855	0.238037	0.000152588	
6.38794	0.24292	0.000305176	
6.38916	0.248413	0.000610352	
6.39008	0.252991	0.0012207	
6.39282	0.257568	0.000915527	
6.39404	0.261841	0.000610352	
6.39404	0.263977	0.000762939	
6.39526	0.267944	0.000457764	
6.39801	0.273132	0.000457764	
6.39923	0.276794	0.000457764	
6.39954	0.282593	-0.000610352	
6.40289	0.286865	0.000305176	
6.4035	0.291443	0.000457764	
6.40381	0.297546	-0.000152588	
6.40503	0.302124	0.000305176	
6.40747	0.306702	0	
6.40869	0.310974	0.000610352	
6.4093	0.31311	0.000457764	
6.41296	0.316467	0	
6.41327	0.32135	0.000305176	
6.41388	0.325928	0.000457764	
6.41479	0.330811	0.000305176	
6.41724	0.335693	0.000152588	
6.41846	0.340881	-0.000305176	
6.41907	0.344238	-0.000305176	
6.41998	0.346985	0.000457764	
6.42242	0.351563	0.000152588	
6.42395	0.355225	0.000152588	
6.42456	0.359802	-0.000152588	
6.42761	0.365601	0.000457764	
6.42883	0.369263	0.00106812	
6.42944	0.372009	0.00106812	
6.42975	0.375977	0.000457764	
6.43219	0.380554	0.000610352	
6.43372	0.385742	0.000305176	
6.43341	0.390015	0.000610352	
6.43494	0.394592	0	
6.43707	0.397034	0.000610352	
6.4389	0.400391	-0.000152588	
6.43951	0.404358	0.000762939	
6.44257	0.408325	0.000305176	
6.44348	0.411072	0.000457764	
6.44348	0.415039	0.000305176	
6.4447	0.419006	0.00106812	
6.44714	0.424805	0.00106812	
6.44806	0.428467	0.000915527	
6.44806	0.429688	0.00106812	
6.44867	0.43457	0.000762939	
6.45203	0.438538	0.000610352	
6.45325	0.44281	0.000762939	
6.45386	0.444946	-0.000152588	
6.4566	0.449829	0	
6.45813	0.451965	0.000457764	
6.45813	0.455627	0.000610352	
6.45874	0.459595	0.000610352	
6.46179	0.463562	0.000457764	
6.46271	0.467834	0.000762939	
6.46271	0.46936	0.000915527	
6.46423	0.473938	0.000305176	
6.46667	0.4776	0.000457764	
6.4682	0.480042	0.000762939	
6.46881	0.483398	0.000457764	
6.47186	0.486755	0.000305176	
6.47339	0.488892	-0.000152588	
6.47369	0.493164	0	
6.474	0.496521	0.000762939	
6.47766	0.498962	0.000152588	
6.47766	0.501709	0.000305176	
6.47858	0.50415	0	
6.47858	0.508118	0.000305176	
6.48193	0.512085	0.000915527	
6.48315	0.513611	0.0012207	
6.48346	0.517578	0.000610352	
6.48621	0.521851	0.000305176	
6.48682	0.523682	0.000915527	
6.48743	0.525818	0.000610352	
6.48865	0.528259	0	
6.4917	0.531311	0.000152588	
6.49231	0.533752	-0.000152588	
6.49292	0.537415	0.000457764	
6.49414	0.540771	0.000457764	
6.49658	0.542908	0.000610352	
6.4978	0.545654	0.00106812	
6.49719	0.547791	0.00106812	
6.49841	0.551758	0.000610352	
6.50116	0.553589	0.000915527	
6.50238	0.555725	0.000305176	
6.50391	0.558167	0.00106812	
6.50635	0.560303	0.000610352	
6.50757	0.563049	0.000305176	
6.50726	0.565796	-0.000305176	
6.50818	0.567627	-0.000305176	
6.51093	0.570679	0.000305176	
6.51215	0.571899	0.000457764	
6.51245	0.575256	0	
6.51337	0.577698	0.000305176	
6.51581	0.580444	0.000610352	
6.51703	0.582275	0.000305176	
6.51764	0.585327	0.000457764	
6.51917	0.587158	0.000457764	
6.5213	0.589905	0	
6.52222	0.591431	0.000457764	
6.52252	0.592651	0.000457764	
6.52374	0.595093	-0.000152588	
6.52557	0.597839	0	
6.5271	0.59967	0.000305176	
6.52832	0.602417	0	
6.53137	0.604248	0.000305176	
6.53168	0.605774	0	
6.53198	0.6073	0.000610352	
6.53381	0.610352	0.00106812	
6.53564	0.610657	0.00152588	
6.53717	0.611877	0.000457764	
6.53717	0.614929	0.000610352	
6.53839	0.615845	0.000610352	
6.54083	0.617676	0.000457764	
6.54236	0.619812	0	
6.54205	0.621338	0.000305176	
6.54358	0.621643	0	
6.54541	0.624695	0.000610352	
6.54694	0.625305	-0.000152588	
6.54785	0.626526	0.000305176	
6.54755	0.629272	0.000457764	
6.5509	0.630188	0.00137329	
6.55151	0.630798	0.000610352	
6.55243	0.634155	0.000610352	
6.55304	0.635376	0.000457764	
6.55609	0.635376	0.000762939	
6.5567	0.635986	0.000762939	
6.55792	0.639648	0.000457764	
6.55792	0.639954	-0.000305176	
6.56067	0.640259	-0.000152588	
6.5625	0.644531	0.000457764	
6.56311	0.644531	0.000305176	
6.56494	0.644836	0	
6.56677	0.644836	0	
6.56677	0.646362	0.000610352	
6.56799	0.649109	0.000457764	
6.57043	0.650024	0.000762939	
6.57166	0.649719	0.000305176	
6.57196	0.650635	0.000457764	
6.57257	0.65155	0.000457764	
6.57471	0.654297	0	
6.57623	0.654907	-0.000305176	
6.57654	0.654602	0.000152588	
6.57837	0.654907	0	
6.58081	0.654907	0.000305176	
6.58173	0.655823	0.000457764	
6.58142	0.65918	-0.000152588	
6.58295	0.661011	0.000762939	
6.58539	0.659485	0.000915527	
6.5863	0.660706	0.00106812	
6.58722	0.659485	0.000762939	
6.58844	0.660095	0.000457764	
6.58997	0.660095	0.000610352	
6.59088	0.663757	0.000152588	
6.59241	0.664673	0	
6.59302	0.664978	0	
6.59485	0.664673	0	
6.59546	0.664978	0.00106812	
6.59607	0.664368	0.000152588	
6.5979	0.664368	0.000457764	
6.60034	0.664673	0.000610352	
6.60156	0.665283	0.00106812	
6.60187	0.664063	0.000915527	
6.60187	0.664978	0.000610352	
6.60614	0.664368	0.000762939	
6.60614	0.664978	0.000457764	
6.60706	0.664673	0.000305176	
6.60736	0.664368	0.000305176	
6.60919	0.665894	-0.000457764	
6.61133	0.66864	-0.000152588	
6.61133	0.669861	0.000305176	
6.61194	0.669861	0.000457764	
6.61469	0.66925	0.000457764	
6.6153	0.669556	0.000305176	
6.61652	0.66925	0.000915527	
6.61713	0.665894	0.000457764	
6.61987	0.664978	0.000305176	
6.62109	0.664673	0.000610352	
6.6217	0.664978	0.000457764	
6.6214	0.664978	0.000762939	
6.62476	0.665283	0.000152588	
6.62628	0.664978	-0.000305176	
6.62598	0.664978	0	
6.62689	0.664673	0.000457764	
6.62994	0.664673	0.000152588	
6.63086	0.665283	0.000152588	
6.63055	0.664673	0	
6.63208	0.664673	0.000457764	
6.63483	0.664368	0.000915527	
6.63513	0.664673	0.0012207	
6.63574	0.664368	0.000457764	
6.63696	0.661621	0.000305176	
6.6391	0.660095	0.000762939	
6.64093	0.660095	0.000305176	
6.64093	0.659485	0.000457764	
6.64063	0.65918	0.000152588	
6.64154	0.65979	-0.000152588	
6.64398	0.65979	0.000457764	
6.6452	0.65918	0.000152588	
6.64581	0.655518	0.000305176	
6.64703	0.655212	0.000915527	
6.64917	0.654907	0.000915527	
6.6507	0.656128	0.000457764	
6.6507	0.655823	0.000762939	
6.65131	0.655212	0.000610352	
6.65375	0.653687	0.000610352	
6.65558	0.65155	0.000305176	
6.65558	0.650024	0.000610352	
6.65558	0.65033	-0.000610352	
6.65863	0.65033	-0.000305176	
6.66077	0.648804	0.000305176	
6.66046	0.646057	0.000305176	
6.66107	0.645447	0.000152588	
6.66382	0.645142	0	
6.66534	0.645142	0.000762939	
6.66626	0.643616	0.000915527	
6.66626	0.641174	0.000305176	
6.66901	0.639954	0.000457764	
6.67053	0.640259	0.000305176	
6.66992	0.639648	0.000762939	
6.67053	0.636292	-0.000152588	
6.67114	0.635681	-0.000152588	
6.67419	0.635376	0.000305176	
6.6748	0.634155	0.000305176	
6.67542	0.632019	0	
6.67694	0.630493	0.000152588	
6.67847	0.630188	-0.000152588	
6.6806	0.629883	0.000457764	
6.6806	0.626831	0.00106812	
6.68091	0.62561	0.00137329	
6.68457	0.624695	0.000915527	
6.68549	0.621643	0.000610352	
6.68579	0.621338	0.000305176	
6.6864	0.621338	0.000610352	
6.68854	0.620117	0.000152588	
6.69037	0.617371	0.000305176	
6.69006	0.61615	0	
6.69159	0.614929	0.000762939	
6.69434	0.612183	0	
6.69525	0.611267	0.000610352	
6.69525	0.610352	0.000762939	
6.69495	0.6073	0.000762939	
6.69708	0.606384	0.000762939	
6.69952	0.604858	0.000915527	
6.70013	0.602112	0.000915527	
6.70044	0.601501	0.000457764	
6.70105	0.600281	0.000457764	
6.70441	0.597839	0.000457764	
6.70502	0.597534	-0.000457764	
6.70532	0.595398	-0.000152588	
6.70685	0.592957	0.000305176	
6.70929	0.591736	0.000457764	
6.71021	0.590515	0.000305176	
6.71051	0.587769	0	
6.71021	0.586243	0.000762939	
6.71143	0.582886	0.000762939	
6.71295	0.58197	0.000457764	
6.71539	0.580139	0.000457764	
6.71478	0.577698	0.000305176	
6.71509	0.576172	0.000762939	
6.71906	0.57312	0.000152588	
6.71936	0.571899	0.000152588	
6.72028	0.570679	0.000457764	
6.71997	0.567932	-0.000152588	
6.72363	0.565491	0.000152588	
6.72424	0.56366	-0.000152588	
6.72485	0.561829	-0.000152588	
6.72455	0.560913	0.000457764	
6.72546	0.557556	0.000762939	
6.72852	0.555115	0.00152588	
6.73004	0.552979	0.000305176	
6.72943	0.552063	0.000457764	
6.73004	0.550842	0.000457764	
6.7334	0.549011	0.000762939	
6.73462	0.545959	0.000305176	
6.73462	0.542603	0.000152588	
6.73553	0.541382	-0.000305176	
6.73828	0.538635	0.000915527	
6.73859	0.537415	0.000152588	
6.74011	0.536194	0.000305176	
6.73981	0.533447	0.000762939	
6.74072	0.531921	0.000915527	
6.74408	0.528564	0.000762939	
6.74377	0.526733	0.000762939	
6.745	0.523682	0.000915527	
6.7453	0.521545	0.000610352	
6.74774	0.518494	0.000610352	
6.74957	0.516663	0.000762939	
6.74866	0.513611	-0.000305176	
6.74896	0.513306	-0.000152588	
6.74988	0.51178	0.000457764	
6.75323	0.509338	0.000152588	
6.75446	0.507202	0.000457764	
6.75446	0.50415	0.000305176	
6.75568	0.502014	0.000610352	
6.75812	0.498657	0.000610352	
6.75964	0.497437	0.000762939	
6.75873	0.49408	0.000305176	
6.75964	0.488586	0.000457764	
6.75995	0.487671	0.000762939	
6.763	0.483704	0	
6.76392	0.482178	0	
6.76422	0.479736	0	
6.76575	0.477295	0	
6.76819	0.474854	0	
6.7688	0.472717	-0.000152588	
6.7691	0.469666	0.000152588	
6.76971	0.46814	0.000152588	
6.77002	0.465393	0.00106812	
6.77246	0.463562	0.0012207	
6.77368	0.459595	0.000610352	
6.77399	0.458069	0.000305176	
6.7749	0.455933	0.000610352	
6.77826	0.452881	0.000915527	
6.77887	0.450134	0.000457764	
6.77856	0.448608	0	
6.77887	0.445251	0.000305176	
6.77979	0.443115	0.000305176	
6.78253	0.440979	0.000152588	
6.78375	0.438843	0.000457764	
6.78375	0.435486	0.000610352	
6.78436	0.433044	0.000762939	
6.78741	0.430603	0.000762939	
6.78894	0.429077	0.000457764	
6.78925	0.42572	0.000457764	
6.78894	0.423584	0.000457764	
6.78986	0.420532	0.000915527	
6.79199	0.419312	0.000457764	
6.79352	0.415649	-0.000305176	
6.79382	0.413513	-0.000152588	
6.79474	0.410461	0.000305176	
6.7981	0.408936	0.000305176	
6.79871	0.406494	0.000152588	
6.79901	0.403748	0.000152588	
6.79932	0.401001	0.000610352	
6.79962	0.39917	0.000762939	
6.80267	0.396118	0.00106812	
6.80328	0.393677	-0.000152588	
6.80359	0.391235	0.000305176	
6.80328	0.389404	0.000915527	
6.8045	0.386658	0	
6.80725	0.384827	0.000152588	
6.80817	0.381165	0	
6.80908	0.376892	0.000152588	
6.81	0.374451	0.000152588	
6.81213	0.372314	0	
6.81366	0.369568	0.000305176	
6.81366	0.366516	0.000762939	
6.81366	0.36499	0.000915527	
6.81396	0.361938	0.0012207	
6.81732	0.360107	0.000457764	
6.81824	0.357361	0.000457764	
6.81885	0.355225	0.000305176	
6.81854	0.351868	0.000305176	
6.81976	0.350647	0.000305176	
6.8222	0.34729	-0.000152588	
6.82312	0.345154	0.000457764	
6.82343	0.342712	0.000305176	
6.82434	0.340271	0.000305176	
6.82709	0.337219	0.000152588	
6.82831	0.335693	0.000762939	
6.828	0.332947	0.000915527	
6.82831	0.3302	0.000762939	
6.82892	0.326843	0.000762939	
6.83258	0.322571	0.000915527	
6.8335	0.32074	0.000305176	
6.8338	0.317993	0.000762939	
6.83289	0.315552	0.000762939	
6.83441	0.313416	-0.000457764	
6.83655	0.311584	-0.000457764	
6.83807	0.308228	0.000610352	
6.83807	0.306396	0.000305176	
6.83868	0.30365	0.000305176	
6.83929	0.300903	0.000457764	
6.84174	0.298767	0.000305176	
6.84296	0.296326	0.000305176	
6.84326	0.293274	0.000457764	
6.84326	0.291748	-0.000152588	
6.84418	0.288391	0.000305176	
6.84753	0.286865	0.000762939	
6.84723	0.283813	0	
6.84845	0.281982	0	
6.84875	0.278625	-0.000152588	
6.84845	0.276794	0.000305176	
6.8515	0.274048	0.000152588	
6.85303	0.271606	0	
6.85272	0.268555	0.000610352	
6.85394	0.267334	0.000457764	
6.8573	0.263672	0.000610352	
6.8576	0.26123	0.00106812	
6.85791	0.259094	0.000305176	
6.85822	0.256958	0.000152588	
6.85883	0.254517	0.000305176	
6.86188	0.252075	0.000762939	
6.86249	0.249939	0.000305176	
6.86249	0.247803	0	
6.8631	0.244751	0.000457764	
6.86432	0.24292	0.000762939	
6.86676	0.239868	-0.000152588	
6.86829	0.237122	0.000305176	
6.86768	0.23468	0.000457764	
6.86768	0.233154	0.000915527	
6.86798	0.230103	0.000457764	
6.87103	0.227966	0.000457764	
6.87225	0.224915	0.000915527	
6.87256	0.222473	0.000610352	
6.87317	0.219727	0.000762939	
6.87408	0.21759	0.000915527	
6.87622	0.215149	-0.000762939	
6.87744	0.213318	-0.000152588	
6.87744	0.209351	0.000152588	
6.87836	0.20813	0.000457764	
6.87836	0.204773	0.000305176	
6.88141	0.202942	0	
6.88293	0.200806	0.000457764	
6.88232	0.198059	0.000457764	
6.88202	0.195313	0.000457764	
6.88354	0.193481	0	
6.8866	0.19104	0.000457764	
6.88751	0.188293	0.000915527	
6.88782	0.184631	0.000152588	
6.88782	0.1828	0.000152588	
6.88782	0.180664	0.000305176	
6.89056	0.179443	0.000152588	
6.8927	0.177612	0.000152588	
6.8927	0.175781	0	
6.89301	0.174255	-0.000152588	
6.89331	0.170593	0.000152588	
6.89636	0.169067	0.00106812	
6.89758	0.166321	0.00152588	
6.89758	0.163269	0.000152588	
6.89728	0.160828	-0.000152588	
6.89789	0.159302	0.000610352	
6.90094	0.15625	0.000762939	
6.90216	0.155029	0.000610352	
6.90247	0.153809	-0.000457764	
6.90216	0.151978	0.000610352	
6.90277	0.149536	0.000762939	
6.90338	0.14679	0.000152588	
6.90613	0.144043	0.000152588	
6.90735	0.141296	0.000610352	
6.90735	0.139465	0.000915527	
6.90765	0.136719	0.000610352	
6.90826	0.135498	0.000762939	
6.91101	0.133972	0.000762939	
6.91223	0.131836	0.000457764	
6.91101	0.129395	0.000762939	
6.91193	0.126648	0.000305176	
6.91284	0.124512	-0.000457764	
6.91528	0.121155	-0.000305176	
6.91711	0.120544	0.000152588	
6.91711	0.119324	0.000457764	
6.91742	0.116882	0	
6.91833	0.114441	0.000457764	
6.92078	0.111694	0.000305176	
6.922	0.111694	0.000457764	
6.922	0.109863	0.000915527	
6.9223	0.107117	0.000305176	
6.92383	0.105286	0.000457764	
6.92566	0.101929	0.000457764	
6.92657	0.100708	0.000152588	
6.92719	0.0994873	0	
6.92688	0.0973511	0.000305176	
6.92688	0.0958252	0.000152588	
6.9281	0.0924683	0	
6.93085	0.0915527	-0.000152588	
6.93207	0.0906372	0.000305176	
6.93237	0.0869751	0.000305176	
6.93207	0.0857544	0.000610352	
6.93237	0.083313	0.00152588	
6.93542	0.0820923	0.000457764	
6.93634	0.0802612	0.000305176	
6.93726	0.078125	0.000457764	
6.93695	0.0765991	0.000610352	
6.93756	0.0738525	0.000457764	
6.94031	0.0717163	-0.000152588	
6.94183	0.0717163	0.000305176	
6.94214	0.0689697	0.000305176	
6.94122	0.0674438	0	
6.94214	0.0665283	0.000457764	
6.94305	0.0640869	0.000457764	
6.94672	0.0634766	0.000762939	
6.94641	0.0613403	0.000762939	
6.94641	0.0592041	0.000762939	
6.94672	0.0567627	0.000610352	
6.94794	0.0531006	0.000457764	
6.95068	0.0524902	0.000610352	
6.9516	0.0518799	0.000610352	
6.9519	0.0482178	-0.000305176	
6.95129	0.0476074	-0.000152588	
6.9516	0.0469971	0	
6.95221	0.0430298	0.000762939	
6.95496	0.0430298	0	
6.95557	0.0415039	0.000305176	
6.95618	0.0393677	0.000152588	
6.95679	0.038147	0.000457764	
6.95801	0.0369263	0.000915527	
6.96014	0.03479	0.000305176	
6.96075	0.0326538	0.000305176	
6.96136	0.0326538	0.00106812	
6.96136	0.0286865	0.000152588	
6.96106	0.027771	-0.000152588	
6.96228	0.0274658	0.000152588	
6.96533	0.0244141	0.000152588	
6.96594	0.0228882	0	
6.96625	0.0216675	-0.000305176	
6.96655	0.0192261	0.000610352	
6.96625	0.0186157	0.000152588	
6.96686	0.0177002	0.000610352	
6.9696	0.0143433	0.00137329	
6.97083	0.0131226	0.000457764	
6.97144	0.0125122	0.000457764	
6.97174	0.0100708	0.000457764	
6.97235	0.00854492	0.000610352	
6.97479	0.00854492	0.000457764	
6.97601	0.00762939	-0.000152588	
6.97632	0.00488281	0.000305176	
6.97662	0.00335693	0.000610352	
6.97632	0.00274658	0	
6.97693	-0.000305176	0.000152588	
6.97998	-0.000915527	0.000610352	
6.9809	-0.00213623	0.000915527	
6.98151	-0.00427246	0.000762939	
6.98151	-0.00640869	0.000762939	
6.9809	-0.00610352	0.000305176	
6.98242	-0.00732422	0.000762939	
6.98517	-0.00946045	0.000610352	
6.98578	-0.010376	0.000762939	
6.98578	-0.0109863	-0.000457764	
6.98547	-0.012207	-0.000457764	
6.98761	-0.0146484	-0.000152588	
6.99066	-0.0158691	0.000457764	
6.99097	-0.0170898	0	
6.99249	-0.0198364	0.000305176	
6.99158	-0.0213623	0	
6.99158	-0.020752	0.000305176	
6.99158	-0.0213623	0.000762939	
6.99463	-0.0244141	0.000457764	
6.99554	-0.0256348	0.000457764	
6.99677	-0.0253296	0.000457764	
6.99615	-0.0268555	0	
6.99646	-0.0292969	0.000152588	
6.99707	-0.0311279	-0.000152588	
7.00012	-0.0314331	0	
7.00104	-0.0311279	0.000305176	
7.00104	-0.0341797	-0.000152588	
7.00195	-0.0354004	0.000457764	
7.00043	-0.0354004	0.000305176	
7.00165	-0.0363159	0.000762939	
7.00439	-0.0390625	0.00152588	
7.00592	-0.039978	0.000610352	
7.00623	-0.0402832	0.000152588	
7.00562	-0.0408936	0.000915527	
7.00592	-0.0439453	0.000915527	
7.00684	-0.0457764	0.000610352	
7.00958	-0.0457764	0	
7.01172	-0.0466919	0.000610352	
7.01172	-0.0491333	0.000762939	
7.0105	-0.0500488	0.000152588	
7.01111	-0.0509644	0.000152588	
7.01172	-0.0509644	0.000610352	
7.01447	-0.0537109	0.000610352	
7.01569	-0.0549316	0.000762939	
7.0166	-0.0561523	0.000762939	
7.01599	-0.0561523	0.000762939	
7.01569	-0.0585938	0.000457764	
7.01752	-0.0601196	0.000610352	
7.01996	-0.0604248	0.000610352	
7.02087	-0.0601196	-0.000305176	
7.02087	-0.0610352	-0.000152588	
7.01996	-0.0640869	-0.000152588	
7.02026	-0.0650024	0.000610352	
7.02179	-0.0643921	-0.000152588	
7.02484	-0.0665283	0.000152588	
7.02515	-0.0689697	0.000305176	
7.02576	-0.0698853	0.000152588	
7.02515	-0.0708008	0.000457764	
7.02545	-0.0701904	0.000457764	
7.02515	-0.071106	0.000305176	
7.02728	-0.0738525	0.000762939	
7.02911	-0.0738525	0.000152588	
7.03033	-0.0750732	-0.000305176	
7.03033	-0.0750732	-0.000152588	
7.03094	-0.0762939	0.000152588	
7.03033	-0.078125	0.000152588	
7.03156	-0.0796509	0	
7.034	-0.0790405	0.000457764	
7.03522	-0.0799561	0.000305176	
7.03522	-0.0805664	0.000457764	
7.03552	-0.0830078	0.00137329	
7.03613	-0.0848389	0.000610352	
7.03644	-0.0848389	0.000305176	
7.03979	-0.0848389	0.000457764	
7.0401	-0.085144	0.000915527	
7.04041	-0.0878906	0.000457764	
7.0401	-0.0891113	-0.000152588	
7.03979	-0.0900269	0.000305176	
7.04041	-0.0891113	0.000457764	
7.04193	-0.0897217	0.000152588	
7.04468	-0.0930786	0.000152588	
7.04529	-0.0946045	0.000610352	
7.04559	-0.0946045	0.000457764	
7.04559	-0.0949097	0.00106812	
7.04529	-0.0952148	0.000610352	
7.04681	-0.0985718	0.000457764	
7.04926	-0.0997925	0.000610352	
7.05109	-0.098877	0.000915527	
7.05048	-0.0997925	0.000305176	
7.05139	-0.0994873	-0.000152588	
7.04987	-0.0997925	0	
7.05078	-0.103149	0	
7.05109	-0.10437	0.000152588	
7.05383	-0.104675	0.000152588	
7.05566	-0.10498	0.000152588	
7.05566	-0.10498	0.000305176	
7.05505	-0.107727	0.000457764	
7.05566	-0.108643	0.000762939	
7.05658	-0.109253	0.000915527	
7.05841	-0.109558	0.000152588	
7.06055	-0.109253	0.000915527	
7.06055	-0.110168	0.000305176	
7.06085	-0.112915	0.000305176	
7.06055	-0.113525	-0.000305176	
7.06024	-0.114136	0.000152588	
7.06146	-0.113831	0.000152588	
7.0636	-0.114136	-0.000457764	
7.06482	-0.114746	0.000457764	
7.06482	-0.117798	0	
7.06512	-0.118408	0.000610352	
7.06543	-0.119324	0.00167847	
7.06665	-0.119019	0.000610352	
7.06879	-0.118713	0.000305176	
7.0697	-0.119324	0.000457764	
7.07031	-0.122375	0.000762939	
7.07123	-0.123291	0.000762939	
7.0697	-0.124512	-0.000152588	
7.07031	-0.123901	0	
7.07153	-0.124207	0.000457764	
7.07367	-0.124817	0.000305176	
7.07458	-0.127869	0.000152588	
7.0752	-0.128174	0.000457764	
7.07581	-0.128784	0.000610352	
7.07581	-0.128784	0.000915527	
7.0755	-0.129089	0.000762939	
7.07611	-0.13031	0.000762939	
7.07977	-0.132141	0.000305176	
7.08008	-0.133057	0.000305176	
7.08099	-0.133667	0.000762939	
7.08069	-0.133057	-0.000152588	
7.08069	-0.133667	-0.000457764	
7.07916	-0.134583	0.000152588	
7.08099	-0.136719	0.000915527	
7.08344	-0.138855	0.000457764	
7.08496	-0.13855	0.000305176	
7.08435	-0.138245	0.000152588	
7.08588	-0.13855	0.000610352	
7.08527	-0.139771	0.000762939	
7.08435	-0.142212	0.000305176	
7.08649	-0.142517	0.000305176	
7.08862	-0.143433	0.000762939	
7.08954	-0.143738	0	
7.09015	-0.143738	0.000457764	
7.08954	-0.143433	-0.000305176	
7.09015	-0.144653	0	
7.09015	-0.1474	0	
7.09076	-0.14801	-0.000152588	
7.0929	-0.148315	0.000915527	
7.09473	-0.14801	0.000305176	
7.09442	-0.148621	0.000610352	
7.09442	-0.149231	0.00137329	
7.09564	-0.151672	0.000610352	
7.09534	-0.152893	0.000610352	
7.09564	-0.153198	0.000305176	
7.09778	-0.153198	0.000762939	
7.09961	-0.153503	0.000305176	
7.0993	-0.153198	0	
7.09991	-0.154114	0.000457764	
7.09961	-0.156555	0	
7.10022	-0.158386	0.000457764	
7.10144	-0.158386	0.000457764	
7.10358	-0.158081	0.000457764	
7.10419	-0.158081	0.000610352	
7.1048	-0.157776	0.000915527	
7.1048	-0.158997	0.000610352	
7.1048	-0.161133	0.000762939	
7.10449	-0.162354	0.000152588	
7.10571	-0.162964	0.000762939	
7.10815	-0.163269	0.000610352	
7.10938	-0.162659	0	
7.10938	-0.162659	-0.000152588	
7.10999	-0.164185	0.000305176	
7.10938	-0.166626	0.000457764	
7.10968	-0.168152	0.000305176	
7.10968	-0.168457	0.000457764	
7.1106	-0.167542	0.000152588	
7.11273	-0.168457	0.000457764	
7.11334	-0.167236	0.000762939	
7.11426	-0.168457	0.000305176	
7.11456	-0.172119	0.000152588	
7.11426	-0.172424	0.000915527	
7.11426	-0.173645	0.000305176	
7.11548	-0.173645	0.000152588	
7.11823	-0.172729	-0.000610352	
7.11945	-0.17334	0	
7.11884	-0.174255	0.000305176	
7.11914	-0.177002	-0.000152588	
7.11975	-0.177307	0.000457764	
7.11914	-0.177612	0.000152588	
7.11884	-0.177612	0.000915527	
7.12036	-0.177612	0.0012207	
7.1228	-0.177307	0.000457764	
7.12402	-0.178833	0.000457764	
7.12402	-0.181885	0.000305176	
7.12463	-0.183105	0.000457764	
7.12402	-0.183411	0.000610352	
7.12402	-0.182495	-0.000152588	
7.12555	-0.183716	0.000457764	
7.12708	-0.18219	0.000305176	
7.1286	-0.184021	0	
7.12921	-0.186462	0.000305176	
7.12891	-0.187683	0.000457764	
7.12921	-0.187988	0.000457764	
7.12891	-0.186768	0.000915527	
7.12891	-0.187683	0.000305176	
7.13043	-0.187378	0.000610352	
7.13287	-0.187683	0.000305176	
7.13409	-0.188904	0.000915527	
7.1347	-0.190735	0.000762939	
7.13409	-0.191956	-0.000152588	
7.13348	-0.192871	-0.000152588	
7.13409	-0.192871	0.000305176	
7.13501	-0.191956	0.000610352	
7.13776	-0.192566	0.000305176	
7.13928	-0.192871	0.000457764	
7.13928	-0.195313	0.000152588	
7.13928	-0.197449	0.000762939	
7.13928	-0.196838	0.000762939	
7.13928	-0.197144	0.000152588	
7.13959	-0.197144	0.000305176	
7.13989	-0.197449	0.000457764	
7.14294	-0.198059	0.000610352	
7.14386	-0.200806	0	
7.14417	-0.202332	0	
7.14417	-0.201721	0.000457764	
7.14417	-0.202942	0	
7.14386	-0.202026	-0.000305176	
7.14386	-0.202332	0.00106812	
7.14478	-0.202026	0	
7.14783	-0.202637	0.000915527	
7.14874	-0.206299	0.00137329	
7.14874	-0.206909	0.000762939	
7.14905	-0.207825	0.000152588	
7.14874	-0.206909	0.000610352	
7.14966	-0.206909	0.000305176	
7.14844	-0.207825	0.000762939	
7.14996	-0.20874	-0.000305176	
7.15271	-0.211182	0	
7.15393	-0.212402	0.000305176	
7.15363	-0.211792	0.000152588	
7.15393	-0.212097	0.000457764	
7.15424	-0.211792	0.000762939	
7.15332	-0.212402	0.000457764	
7.15424	-0.212402	0.000915527	
7.15424	-0.213013	0.000762939	
7.15759	-0.215759	0.000305176	
7.15912	-0.216675	0.000305176	
7.15912	-0.217285	0.000762939	
7.15942	-0.21637	0.000610352	
7.15912	-0.216675	-0.000305176	
7.15973	-0.21698	-0.000305176	
7.15881	-0.217896	0.000152588	
7.16003	-0.220642	0.000152588	
7.16309	-0.222168	-0.000152588	
7.1637	-0.222168	0.000610352	
7.16431	-0.221863	-0.000457764	
7.16431	-0.222168	0.000457764	
7.1637	-0.221863	0.00106812	
7.1637	-0.221863	0.000305176	
7.16431	-0.223389	0	
7.16522	-0.225525	0.000457764	
7.16766	-0.22644	0.000152588	
7.16827	-0.226746	0.000152588	
7.16919	-0.227356	-0.000305176	
7.16919	-0.227051	0.000152588	
7.16858	-0.226746	0.000305176	
7.16827	-0.228577	-0.000152588	
7.16888	-0.230713	0.000610352	
7.1701	-0.231934	0.000152588	
7.17285	-0.231934	0.00106812	
7.17346	-0.231934	0.00106812	
7.17377	-0.231934	0.000915527	
7.17407	-0.231934	0.000152588	
7.17377	-0.232239	0.000457764	
7.17377	-0.234375	0.000305176	
7.17438	-0.235596	0.000457764	
7.17407	-0.236511	-0.000305176	
7.17499	-0.237122	0.000305176	
7.17773	-0.237122	0.000305176	
7.17834	-0.236511	0.000305176	
7.17896	-0.236511	0.000457764	
7.17834	-0.237427	0.000457764	
7.17896	-0.239868	0.000610352	
7.17926	-0.241089	0.000915527	
7.17865	-0.241699	0.000610352	
7.17987	-0.241089	0.000457764	
7.18262	-0.241394	0	
7.18384	-0.241394	0.000610352	
7.18323	-0.24231	0.000305176	
7.18353	-0.245361	0	
7.18323	-0.245361	-0.000305176	
7.18353	-0.246887	0.000305176	
7.18353	-0.245667	0.000610352	
7.18506	-0.246582	0.000152588	
7.18781	-0.246277	0.000152588	
7.18811	-0.247192	0.000152588	
7.18842	-0.250549	0.000305176	
7.18903	-0.25116	0.00106812	
7.18842	-0.251465	0.000305176	
7.18872	-0.250854	0	
7.18781	-0.251465	0.000457764	
7.18872	-0.251465	0.000305176	
7.18964	-0.25238	0.000305176	
7.19177	-0.255127	-0.000305176	
7.1933	-0.255737	0.000457764	
7.19391	-0.256042	0	
7.19391	-0.256042	0	
7.19391	-0.256348	0.000610352	
7.19391	-0.256348	0.000152588	
7.1933	-0.255737	0.000457764	
7.1936	-0.257874	0.00152588	
7.19757	-0.259705	0.000762939	
7.19849	-0.260925	0.000305176	
7.19849	-0.260925	0.000762939	
7.1991	-0.260925	0.000305176	
7.19849	-0.260925	0.000610352	
7.19788	-0.260925	-0.000305176	
7.19818	-0.261841	0	
7.1991	-0.265198	0.000152588	
7.1991	-0.265808	0.000152588	
7.20215	-0.265808	0.000305176	
7.20337	-0.265503	0	
7.20398	-0.265503	0.000762939	
7.20337	-0.266113	0.00137329	
7.20276	-0.267029	0.000152588	
7.20337	-0.269775	0.000305176	
7.20337	-0.270386	0.000610352	
7.20337	-0.270691	0.000915527	
7.2052	-0.270691	0.000457764	
7.20764	-0.270386	0	
7.20795	-0.270691	-0.000305176	
7.20856	-0.271606	0.000305176	
7.20825	-0.274353	0.000457764	
7.20825	-0.275879	0.000152588	
7.20825	-0.275879	0.000457764	
7.20856	-0.276489	0.000457764	
7.20886	-0.275879	0.000457764	
7.20947	-0.275574	0.000915527	
7.21191	-0.276489	0.000457764	
7.21313	-0.279541	0.000305176	
7.21375	-0.280762	0.000610352	
7.21344	-0.281372	0.000152588	
7.21405	-0.280457	-0.000152588	
7.21344	-0.280762	-0.000152588	
7.21344	-0.280762	0	
7.21344	-0.280151	0.000152588	
7.21405	-0.281067	-0.000152588	
7.2168	-0.284119	0.000610352	
7.21863	-0.285339	0	
7.21832	-0.285339	0.000457764	
7.21832	-0.285645	0.0012207	
7.21863	-0.285645	0.000915527	
7.21802	-0.286255	0.000152588	
7.21802	-0.286865	0.000457764	
7.21802	-0.289307	0.000152588	
7.21924	-0.290222	0.000762939	
7.22229	-0.291138	-0.000152588	
7.22321	-0.290833	0.000305176	
7.2229	-0.290527	0.000152588	
7.22321	-0.289917	0.000152588	
7.2229	-0.291138	0.000457764	
7.22351	-0.294189	0.000457764	
7.22321	-0.296021	0.000762939	
7.22351	-0.296326	0.0012207	
7.22412	-0.295715	0.000915527	
7.22656	-0.296021	0.000457764	
7.22809	-0.29541	0.000915527	
7.22778	-0.29541	0.000610352	
7.2287	-0.298767	0.000457764	
7.22839	-0.301208	-0.000305176	
7.22748	-0.299988	-0.000305176	
7.22748	-0.300903	-0.000152588	
7.22778	-0.300293	0.000305176	
7.22931	-0.300903	0.000457764	
7.23114	-0.301514	0.000305176	
7.23297	-0.30426	0.000152588	
7.23358	-0.304871	0.000762939	
7.23297	-0.305176	0.000610352	
7.23236	-0.305176	0.000610352	
7.23297	-0.305481	0.000152588	
7.23358	-0.306396	0.000762939	
7.23236	-0.306396	0.000152588	
7.23389	-0.309448	-0.000152588	
7.23663	-0.310364	-0.000305176	
7.23816	-0.310059	0.000305176	
7.23755	-0.309753	0.000152588	
7.23785	-0.310364	-0.000152588	
7.23816	-0.310669	0.000457764	
7.23785	-0.311279	0.000152588	
7.23785	-0.31311	0.000305176	
7.23785	-0.314331	0.0012207	
7.23846	-0.314636	0.00106812	
7.23877	-0.315247	0.000152588	
7.24243	-0.315247	0.000152588	
7.24243	-0.315552	0.000152588	
7.24213	-0.315552	0.000152588	
7.24274	-0.318909	-0.000305176	
7.24274	-0.319824	0.000457764	
7.24304	-0.319519	0.000610352	
7.24274	-0.319519	0.000305176	
7.24243	-0.319824	0.000305176	
7.24396	-0.319214	0.000152588	
7.24701	-0.320435	0.000457764	
7.24762	-0.323486	0.0012207	
7.24792	-0.324402	0.000457764	
7.24823	-0.323792	0.000305176	
7.24762	-0.324707	0	
7.24792	-0.325012	0.000610352	
7.24823	-0.325012	0.000762939	
7.24762	-0.325012	0	
7.24823	-0.328674	-0.000152588	
7.24884	-0.32959	0.000152588	
7.25128	-0.328979	0.000305176	
7.25281	-0.329895	0.000152588	
7.25281	-0.32959	0.000152588	
7.25311	-0.329895	0.000152588	
7.25311	-0.330505	0.000610352	
7.25281	-0.333557	0.000762939	
7.25281	-0.334778	0.000305176	
7.25311	-0.335083	0.000152588	
7.25342	-0.334473	0.000457764	
7.25677	-0.335083	0.000152588	
7.258	-0.334473	0.000152588	
7.258	-0.334473	-0.000610352	
7.258	-0.334778	0.000152588	
7.25769	-0.33844	0.000152588	
7.2583	-0.339355	-0.000305176	
7.25769	-0.339661	0.000305176	
7.25769	-0.339355	0	
7.25769	-0.339661	0.000152588	
7.25891	-0.339661	0.0012207	
7.26166	-0.339355	0.00106812	
7.26257	-0.342712	0.000305176	
7.26257	-0.344238	0.000610352	
7.26257	-0.344238	0.000305176	
7.26257	-0.344238	0.000305176	
7.26257	-0.344238	0	
7.26288	-0.344543	0.000457764	
7.26257	-0.345154	0	
7.26257	-0.348206	0.000457764	
7.26379	-0.349121	0.000152588	
7.26624	-0.349426	0.000305176	
7.26807	-0.349121	0.000457764	
7.26746	-0.349426	0.00106812	
7.26746	-0.348511	0.000610352	
7.26746	-0.350342	0.000762939	
7.26776	-0.352783	0.000457764	
7.26715	-0.353699	0.000457764	
7.26746	-0.353394	0.000915527	
7.26715	-0.354309	0	
7.26807	-0.354004	0	
7.27112	-0.354004	-0.000152588	
7.27203	-0.354004	0.000762939	
7.27234	-0.35553	0.000152588	
7.27264	-0.358276	0.000305176	
7.27203	-0.358582	0.000305176	
7.27295	-0.359192	0.000610352	
7.27295	-0.359192	0.000762939	
7.27203	-0.358887	0.000457764	
7.27264	-0.359192	0.000152588	
7.27356	-0.359192	0.000915527	
7.27631	-0.362854	0.000457764	
7.27722	-0.36377	0.000457764	
7.27722	-0.364075	-0.000457764	
7.27692	-0.36377	0	
7.27722	-0.36377	0.000457764	
7.27753	-0.363464	0.000305176	
7.27722	-0.364075	0.000610352	
7.27722	-0.36499	0	
7.27722	-0.368042	0.000762939	
7.27692	-0.368652	0.00137329	
7.27814	-0.368652	0.00106812	
7.28119	-0.368958	0.000305176	
7.28149	-0.369263	0.000610352	
7.2821	-0.368958	0.000305176	
7.28241	-0.369873	0.000457764	
7.28271	-0.372314	-0.000152588	
7.28241	-0.374146	0.000305176	
7.2818	-0.374451	0.000305176	
7.2818	-0.374146	0.000152588	
7.2821	-0.37384	0.000305176	
7.28302	-0.37384	0.000305176	
7.28577	-0.37384	0.000457764	
7.28638	-0.374146	0.000915527	
7.28699	-0.374756	0.000457764	
7.28699	-0.377502	0.000610352	
7.28699	-0.378723	0.000610352	
7.28699	-0.378418	0.000762939	
7.28699	-0.378418	0.000915527	
7.28729	-0.378418	0	
7.28668	-0.379028	-0.000152588	
7.2876	-0.379333	-0.000152588	
7.28912	-0.379944	0.000457764	
7.29065	-0.38269	0.000152588	
7.29218	-0.382996	0.000305176	
7.29248	-0.384216	0.000610352	
7.29187	-0.383911	0.000152588	
7.29279	-0.383606	0.000762939	
7.29248	-0.383911	0.000762939	
7.29248	-0.383301	0	
7.29218	-0.383606	0.000610352	
7.29187	-0.383911	0.000305176	
7.29187	-0.387573	0	
7.29279	-0.387878	-0.000152588	
7.29553	-0.388489	0	
7.29706	-0.387878	0.000152588	
7.29706	-0.388489	-0.000152588	
7.29706	-0.388489	0.000305176	
7.29706	-0.388489	0.000457764	
7.29767	-0.388794	0.000457764	
7.29767	-0.387573	0.00137329	
7.29675	-0.389099	0.000915527	
7.29767	-0.392151	0.000305176	
7.29736	-0.392761	0.000305176	
7.29736	-0.393677	0.000305176	
7.30103	-0.393372	0.000762939	
7.30225	-0.393677	-0.000152588	
7.30194	-0.393066	0.000305176	
7.30225	-0.393066	0	
7.30194	-0.393982	0	
7.30133	-0.393372	0.000610352	
7.30164	-0.394592	0.000305176	
7.30225	-0.397034	0.000457764	
7.30194	-0.397644	0.000915527	
7.30225	-0.397949	0.000762939	
7.30347	-0.397949	0.000610352	
7.3056	-0.397949	0.000152588	
7.30682	-0.397949	0.000762939	
7.30682	-0.397949	0.000610352	
7.30743	-0.39856	0.000305176	
7.30682	-0.397949	0	
7.30743	-0.398254	-0.000152588	
7.30682	-0.397949	0.000457764	
7.30682	-0.397644	0.000305176	
7.30652	-0.397949	0.000152588	
7.30713	-0.399475	-0.000152588	
7.30774	-0.402832	0.000457764	
7.31049	-0.403442	0.00106812	
7.31232	-0.403748	0.000762939	
7.31201	-0.402832	0	
7.31262	-0.403748	0.000762939	
7.31232	-0.403137	0.000762939	
7.31201	-0.403137	0.000305176	
7.3114	-0.403137	-0.000457764	
7.31171	-0.402832	0.000305176	
7.31201	-0.403442	0.000305176	
7.31262	-0.402832	0.000152588	
7.31232	-0.402832	0.000152588	
7.31323	-0.403442	0.000305176	
7.31567	-0.402832	0.000457764	
7.31659	-0.403442	0.0012207	
7.31689	-0.402832	0.00106812	
7.31659	-0.403442	0.000457764	
7.31659	-0.402832	0.000152588	
7.31659	-0.403748	0.000152588	
7.3175	-0.402832	0.000457764	
7.3172	-0.402832	-0.000152588	
7.31689	-0.403442	0.000762939	
7.3175	-0.403442	0.000457764	
7.31812	-0.403748	0.000305176	
7.32086	-0.403442	0.000457764	
7.32056	-0.403137	0.000305176	
7.32239	-0.403442	0.000457764	
7.32178	-0.402832	0.0012207	
7.32147	-0.403137	0.000457764	
7.32117	-0.403748	0.000610352	
7.32239	-0.403137	0.000457764	
7.32178	-0.403137	0.000457764	
7.32208	-0.403137	0.000457764	
7.32208	-0.403442	0.000152588	
7.32239	-0.403137	-0.000305176	
7.32269	-0.403748	-0.000152588	
7.32574	-0.403137	0.000610352	
7.32635	-0.403137	0.000305176	
7.32666	-0.403137	0.000152588	
7.32697	-0.404053	0	
7.32635	-0.402832	0.000457764	
7.32635	-0.402527	0.000457764	
7.32666	-0.403137	0.000457764	
7.32666	-0.402832	0.000152588	
7.32666	-0.403748	0.000610352	
7.32697	-0.402832	0	
7.32666	-0.403137	0	
7.32666	-0.402222	-0.000457764	
7.32788	-0.39917	-0.000305176	
7.33124	-0.39917	-0.000152588	
7.33154	-0.39856	-0.000305176	
7.33154	-0.398865	0.000152588	
7.33215	-0.39856	0.000152588	
7.33124	-0.39856	0.000305176	
7.33154	-0.397949	0.0012207	
7.33154	-0.398254	0.00106812	
7.33154	-0.397034	0.000610352	
7.33154	-0.393982	0.000152588	
7.33215	-0.393066	0.000457764	
7.33154	-0.393372	0.000457764	
7.33307	-0.393066	-0.000152588	
7.33582	-0.393066	0.000305176	
7.33643	-0.393066	0.000152588	
7.33704	-0.392456	0.000305176	
7.33673	-0.389709	0.000457764	
7.33704	-0.388184	0.000610352	
7.33704	-0.388184	0.000762939	
7.33643	-0.388489	0.00106812	
7.33643	-0.386963	0.000762939	
7.33612	-0.384521	0.000457764	
7.33612	-0.383606	0.000305176	
7.33673	-0.383606	0.000762939	
7.33643	-0.383606	0.000610352	
7.33765	-0.382996	0.000305176	
7.34039	-0.379639	-0.000610352	
7.34161	-0.379333	-0.000152588	
7.34192	-0.378113	0	
7.34131	-0.377502	0	
7.34222	-0.375366	0.000305176	
7.34161	-0.373535	0	
7.34192	-0.37384	0.000305176	
7.34161	-0.372314	0.000305176	
7.34161	-0.370178	0.000457764	
7.34192	-0.369568	0	
7.34192	-0.368347	0.000457764	
7.34253	-0.365295	0.000305176	
7.34528	-0.364075	0	
7.34619	-0.363464	-0.000457764	
7.3465	-0.360413	0.000305176	
7.3465	-0.358887	0	
7.3468	-0.358887	-0.000305176	
7.3465	-0.35553	0.000152588	
7.3465	-0.354309	0	
7.3465	-0.353394	0.000305176	
7.3468	-0.350342	0.00137329	
7.34589	-0.348816	0.00106812	
7.34619	-0.348206	0.000457764	
7.3465	-0.345764	0.000152588	
7.34619	-0.343323	0.000305176	
7.34711	-0.340881	0.000762939	
7.35016	-0.339661	0	
7.35107	-0.33905	0.000457764	
7.35107	-0.335999	0	
7.35077	-0.333862	0.000457764	
7.35077	-0.3302	0.000457764	
7.35199	-0.328979	0.000457764	
7.35199	-0.325623	0.000610352	
7.35168	-0.324097	0.0012207	
7.35168	-0.320435	0.000610352	
7.35168	-0.319519	0.000610352	
7.35107	-0.318604	0.000305176	
7.35138	-0.315552	0.000915527	
7.35291	-0.314636	0.000915527	
7.35474	-0.311584	-0.000152588	
7.35565	-0.309448	-0.000152588	
7.35626	-0.306396	-0.000152588	
7.35596	-0.304565	0.000610352	
7.35657	-0.300598	0.000305176	
7.35626	-0.296936	0.000457764	
7.35596	-0.2948	0.000152588	
7.35596	-0.291443	0.000152588	
7.35626	-0.289307	0.000762939	
7.35626	-0.286255	0.000610352	
7.35626	-0.285339	0	
7.35626	-0.281372	0.000610352	
7.35596	-0.280457	0.000305176	
7.35779	-0.275574	0.000305176	
7.36053	-0.272522	-0.000152588	
7.36115	-0.269775	0	
7.36084	-0.266418	0.000152588	
7.36115	-0.265198	0.000152588	
7.36053	-0.261536	0.000305176	
7.36115	-0.257568	0.000152588	
7.36115	-0.255127	0.000305176	
7.36176	-0.251465	0.0012207	
7.36145	-0.248108	0.00106812	
7.36176	-0.245667	0.000457764	
7.36115	-0.241394	0.000610352	
7.36176	-0.238342	0.000305176	
7.36115	-0.235291	0.000457764	
7.36206	-0.232239	-0.000152588	
7.36511	-0.227966	0.000305176	
7.36572	-0.225525	0.000152588	
7.36664	-0.222168	0.000305176	
7.36603	-0.218506	0.000457764	
7.36633	-0.21637	0	
7.36664	-0.211792	0.000915527	
7.36664	-0.206909	0.00106812	
7.36633	-0.203247	0.000152588	
7.36603	-0.201416	0.000610352	
7.36633	-0.197754	0.000762939	
7.36603	-0.192871	0.000762939	
7.36664	-0.189209	0.000762939	
7.36664	-0.186768	0.000305176	
7.36694	-0.183411	-0.000152588	
7.3703	-0.177917	-0.000457764	
7.37091	-0.173645	0.000610352	
7.37122	-0.171509	0	
7.37122	-0.167847	0.000305176	
7.37091	-0.163269	0.000152588	
7.37091	-0.158386	0.000305176	
7.37213	-0.154724	0.00106812	
7.37122	-0.152588	0.000457764	
7.37122	-0.148926	0.000305176	
7.37122	-0.144043	0.000610352	
7.37122	-0.13855	0.000457764	
7.37152	-0.134277	0	
7.37152	-0.129395	-0.000457764	
7.37091	-0.128174	0.000305176	
7.37183	-0.124512	0	
7.37518	-0.119629	-0.000152588	
7.3764	-0.113831	0.000152588	
7.3761	-0.109253	0	
7.37671	-0.105286	0	
7.3764	-0.10376	0.00152588	
7.37671	-0.0994873	0.00106812	
7.3764	-0.0942993	0.000457764	
7.3761	-0.0900269	0.000457764	
7.37579	-0.085144	0.000915527	
7.3764	-0.0802612	0.000457764	
7.3761	-0.0747681	0	
7.3761	-0.071106	0.000457764	
7.37671	-0.0692749	0.000152588	
7.37671	-0.0646973	0.000762939	
7.38037	-0.0601196	0.000610352	
7.38098	-0.0558472	0.000305176	
7.38098	-0.0506592	0.000610352	
7.38098	-0.045166	0.000915527	
7.38129	-0.0405884	0.000457764	
7.38098	-0.0360107	0.000305176	
7.38129	-0.0314331	0.000457764	
7.38068	-0.0265503	0.00106812	
7.38129	-0.022583	0.000762939	
7.38129	-0.0201416	0.000610352	
7.38159	-0.0161743	-0.000152588	
7.38007	-0.0115967	-0.000457764	
7.38129	-0.00640869	0.000457764	
7.38098	-0.000915527	0.000152588	
7.38098	0.00366211	0.000305176	
7.38129	0.00793457	-0.000152588	
7.38495	0.0128174	0.000305176	
7.38586	0.0186157	0.000915527	
7.38617	0.0231934	0.000610352	
7.38617	0.027771	0.000152588	
7.38617	0.0323486	0.000762939	
7.38617	0.0375366	0.000305176	
7.38525	0.0424194	0	
7.38525	0.0466919	-0.000152588	
7.38525	0.0482178	0.000305176	
7.38525	0.0518799	-0.000152588	
7.38617	0.057373	-0.000305176	
7.38556	0.0616455	0.000305176	
7.38556	0.0671387	0.000305176	
7.38586	0.0720215	0.000152588	
7.38708	0.0765991	0.000915527	
7.39014	0.0805664	0.000915527	
7.39044	0.0863647	0.000610352	
7.39136	0.0909424	0.000762939	
7.39075	0.09552	0.000762939	
7.39075	0.100403	0.000152588	
7.39136	0.105286	0.000305176	
7.39105	0.110779	0.000305176	
7.39105	0.115356	0.000152588	
7.39105	0.120544	0.000610352	
7.39136	0.124817	0.000457764	
7.39136	0.130005	0.000152588	
7.39044	0.133667	0.000915527	
7.39075	0.136719	0.000915527	
7.39075	0.140686	0.000457764	
7.39136	0.144958	0.000915527	
7.39258	0.149536	0.000610352	
7.39532	0.155029	0.000610352	
7.39594	0.159607	0.000457764	
7.39563	0.164795	0.000457764	
7.39624	0.169678	-0.000152588	
7.39594	0.174561	-0.000305176	
7.39594	0.178833	0.000457764	
7.39594	0.183716	0	
7.39624	0.188599	0.000152588	
7.39441	0.193787	0.000152588	
7.39563	0.198669	0.000152588	
7.39563	0.203552	0.000915527	
7.39563	0.208435	0.000762939	
7.39563	0.213013	0	
7.39563	0.214844	0.000457764	
7.39594	0.218811	0.000610352	
7.39716	0.223389	-0.000152588	
7.3996	0.228882	-0.000152588	
7.40021	0.233154	0.000152588	
7.40051	0.237427	0.000305176	
7.40082	0.242615	0	
7.40082	0.247192	0.000610352	
7.40173	0.253296	-0.000305176	
7.40051	0.257568	0.000152588	
7.40051	0.262451	0.00106812	
7.40051	0.266724	0.0012207	
7.40082	0.269165	0.00106812	
7.40082	0.272827	0.000305176	
7.40082	0.2771	0.000610352	
7.40082	0.281982	0.000762939	
7.40082	0.286865	0	
7.40082	0.291138	0.000305176	
7.40234	0.297241	0.000152588	
7.40479	0.301819	0.000152588	
7.40601	0.305786	0.000610352	
7.40509	0.308228	0	
7.40601	0.311279	0.000457764	
7.40509	0.316772	0.000915527	
7.40509	0.321045	0.000457764	
7.4057	0.326538	0.00106812	
7.4057	0.332031	0.000457764	
7.4054	0.335083	0.000762939	
7.4057	0.337219	0.000762939	
7.4054	0.340576	0.000305176	
7.4057	0.345764	0	
7.40601	0.350647	-0.000610352	
7.40509	0.355835	0.000305176	
7.40631	0.360413	0.000762939	
7.40601	0.364685	0.000305176	
7.40662	0.366516	0.000457764	
7.40936	0.370483	0.000152588	
7.41028	0.375366	0.000915527	
7.41058	0.380249	0.000915527	
7.40997	0.384521	0	
7.41058	0.386658	0.000915527	
7.41028	0.390625	0.000305176	
7.41028	0.394287	0.000152588	
7.41089	0.39917	-0.000305176	
7.41119	0.404358	0.000305176	
7.41028	0.405884	0	
7.41028	0.409546	-0.000457764	
7.41089	0.414124	0.000152588	
7.41058	0.419312	0.000457764	
7.41058	0.423584	-0.000305176	
7.41028	0.42511	0.000915527	
7.4115	0.429077	0.0012207	
7.41211	0.43457	0.000610352	
7.41486	0.438843	0.000305176	
7.41486	0.441284	0.000762939	
7.41547	0.444641	0.000915527	
7.41577	0.447693	-0.000457764	
7.41547	0.450745	0.000305176	
7.41577	0.454102	0	
7.41608	0.458984	0.000457764	
7.41547	0.462036	0.000305176	
7.41577	0.464478	0.000457764	
7.41516	0.468445	0.000610352	
7.41577	0.472412	0.000762939	
7.41547	0.473938	0.00106812	
7.41608	0.477905	0.000915527	
7.41516	0.483093	0.000457764	
7.41486	0.486755	0.000610352	
7.41608	0.489807	0.000915527	
7.41699	0.493774	0.000152588	
7.41943	0.496216	-0.000152588	
7.42035	0.498962	-0.000457764	
7.42035	0.502014	0.000305176	
7.42096	0.50415	0.000457764	
7.42035	0.507813	0.000152588	
7.42035	0.51178	0.000457764	
7.42035	0.514221	0	
7.42065	0.517273	0.000915527	
7.42096	0.521545	0.000762939	
7.42035	0.523682	0	
7.42065	0.526428	0.000762939	
7.42035	0.528564	0.000762939	
7.42065	0.532532	0.000152588	
7.42004	0.535889	0	
7.42126	0.538635	0	
7.42035	0.541077	0.000152588	
7.42157	0.542908	0	
7.42432	0.547791	0.000152588	
7.42554	0.550842	-0.000152588	
7.42523	0.553284	0	
7.42523	0.556335	0.00106812	
7.42493	0.557556	0.00106812	
7.42523	0.560608	0.000610352	
7.42554	0.562744	0.000305176	
7.42523	0.565491	0.000457764	
7.42554	0.567322	0.000915527	
7.42554	0.570374	0.000152588	
7.42493	0.571899	0.000305176	
7.42462	0.575256	-0.000152588	
7.42493	0.577393	0.000305176	
7.42523	0.581055	0.000305176	
7.42523	0.582581	0	
7.42523	0.586243	0.000457764	
7.42554	0.587463	0.000762939	
7.42676	0.591125	0.000610352	
7.4295	0.592651	0.000762939	
7.4295	0.595398	0.000457764	
7.42981	0.596924	0.000915527	
7.43042	0.599976	0.000610352	
7.43073	0.602417	0.000457764	
7.42981	0.604858	-0.000305176	
7.43042	0.606384	-0.000457764	
7.43011	0.606689	0	
7.43011	0.610352	0.000762939	
7.43042	0.611877	0.000152588	
7.43103	0.614624	0.000305176	
7.42981	0.615845	0.000152588	
7.42981	0.61676	0.000915527	
7.43042	0.620117	0.000610352	
7.43134	0.621643	0	
7.43011	0.625	0.000915527	
7.4292	0.626221	0.000305176	
7.42981	0.626526	0.000305176	
7.43164	0.628357	0	
7.43408	0.630188	0	
7.4353	0.631104	-0.000152588	
7.43561	0.63385	-0.000152588	
7.4353	0.635376	0.000305176	
7.43561	0.636597	0.000152588	
7.435	0.638733	0.000152588	
7.43439	0.640564	0.000915527	
7.435	0.641174	0.00137329	
7.435	0.644226	0.000915527	
7.43469	0.644836	0	
7.435	0.645142	0.000762939	
7.435	0.646057	0.000915527	
7.43439	0.649109	0.000305176	
7.435	0.650024	0	
7.4353	0.65094	0	
7.4353	0.654602	0.000152588	
7.43408	0.654907	0.000305176	
7.43622	0.655212	0.000457764	
7.43927	0.655823	0.000457764	
7.43988	0.659485	0.00106812	
7.43988	0.6604	0.000762939	
7.43988	0.65979	0.000457764	
7.4408	0.659485	0.000457764	
7.43988	0.661011	0.00106812	
7.43958	0.662842	0.000915527	
7.44049	0.664978	0.000610352	
7.43988	0.665283	-0.000152588	
7.44019	0.664673	-0.000305176	
7.44019	0.665588	0.000152588	
7.44019	0.66864	0.000457764	
7.43988	0.66925	0.000152588	
7.44049	0.670776	0.000305176	
7.43988	0.670166	-0.000152588	
7.43988	0.670166	0.000457764	
7.43988	0.669861	0.000610352	
7.43958	0.670776	0.000457764	
7.44171	0.673523	0.000610352	
7.44415	0.674744	0.000457764	
7.44537	0.674744	0.000305176	
7.44537	0.673828	0	
7.44476	0.674744	0.000305176	
7.44537	0.674744	0.000305176	
7.44568	0.674744	0.000152588	
7.44476	0.675049	0.000152588	
7.44568	0.675964	0.000152588	
7.44507	0.678406	0	
7.44537	0.679626	0.000915527	
7.44507	0.679932	0.0012207	
7.44537	0.679016	0.000762939	
7.44507	0.679321	0	
7.44507	0.679321	0.000457764	
7.44476	0.679321	0.000457764	
7.44476	0.679626	0	
7.44507	0.679321	0.000152588	
7.44446	0.679626	0.000305176	
7.44476	0.679321	0.000457764	
7.4469	0.679626	0.000305176	
7.44904	0.680237	0.000305176	
7.45056	0.679626	0.000457764	
7.44995	0.679932	0.00106812	
7.44965	0.680542	0.00106812	
7.45026	0.679626	0.000610352	
7.44995	0.679321	0	
7.44995	0.680237	0.00106812	
7.44965	0.679932	0.000762939	
7.44995	0.679626	0.000457764	
7.44934	0.679016	-0.000152588	
7.44965	0.679626	-0.000457764	
7.45026	0.679321	0	
7.44965	0.679016	0.000457764	
7.44934	0.679321	0	
7.45026	0.679626	0.000305176	
7.44965	0.679932	0.000305176	
7.44934	0.678711	0.00106812	
7.45026	0.675659	0.000305176	
7.44995	0.675354	0.000152588	
7.45087	0.675049	0.000762939	
7.45331	0.675049	0.000457764	
7.45483	0.674744	0.000305176	
7.45514	0.675659	0	
7.45514	0.674744	0	
7.45514	0.674438	-0.000152588	
7.45422	0.674744	0.000152588	
7.45483	0.673523	0.000305176	
7.45544	0.670776	0.000152588	
7.45483	0.670471	-0.000152588	
7.45544	0.670166	0.00106812	
7.45544	0.669556	0.000915527	
7.45453	0.669861	0.000457764	
7.45483	0.66925	0.000152588	
7.45544	0.666504	0.000457764	
7.45483	0.665588	0.000915527	
7.45544	0.664978	-0.000152588	
7.45575	0.664673	0.000152588	
7.45575	0.664368	0	
7.45453	0.663757	0.000152588	
7.45544	0.661316	0.000305176	
7.4588	0.65918	0.000610352	
7.45972	0.659485	0.000610352	
7.45941	0.660095	0.000762939	
7.46002	0.65918	0.00106812	
7.45941	0.655823	0.000762939	
7.46033	0.654602	0.000457764	
7.46002	0.655212	0.000762939	
7.45972	0.655518	0.000457764	
7.45972	0.654602	0.000152588	
7.45941	0.651245	0	
7.45941	0.650635	-0.000610352	
7.45972	0.65033	0.000152588	
7.46002	0.649414	0.000305176	
7.45972	0.646667	0	
7.46002	0.645752	0.000152588	
7.45972	0.644836	0	
7.45941	0.643921	0.000915527	
7.46002	0.640869	0.000610352	
7.45972	0.640259	0	
7.45941	0.639648	0.000305176	
7.45972	0.636597	0.000305176	
7.46094	0.635071	0.000152588	
7.46246	0.635376	0.000457764	
7.4646	0.63385	0	
7.4646	0.631409	0.000305176	
7.46521	0.631104	0	
7.4646	0.629578	0.000152588	
7.46429	0.626526	0.000152588	
7.46429	0.626221	0.000305176	
7.4646	0.624695	0.000762939	
7.4646	0.622253	0.00137329	
7.4646	0.621033	0.000610352	
7.46521	0.620422	0.000305176	
7.4646	0.617676	0.000457764	
7.4649	0.616455	0.000762939	
7.4646	0.614929	0.000305176	
7.46521	0.612183	0	
7.4649	0.611267	0.000305176	
7.4646	0.610352	0.000305176	
7.46399	0.607605	0.000305176	
7.4646	0.606384	0	
7.46521	0.605774	0.000610352	
7.4649	0.602417	0.000610352	
7.46429	0.601196	0.00106812	
7.46552	0.59967	0.000457764	
7.46857	0.597229	0	
7.46979	0.595398	0.0012207	
7.46979	0.592651	0.000610352	
7.47009	0.591736	0.000305176	
7.4707	0.59082	0.000152588	
7.46948	0.587463	-0.000457764	
7.46979	0.585632	0.000152588	
7.46979	0.585938	0.000152588	
7.46979	0.582581	0.000152588	
7.46948	0.581055	0.000152588	
7.47009	0.578003	0	
7.47009	0.575256	0.000762939	
7.4707	0.57312	0.000457764	
7.47009	0.572205	0	
7.47009	0.570679	0.000762939	
7.46948	0.568542	0.000610352	
7.47009	0.565491	0.000152588	
7.4704	0.563049	0.000152588	
7.46918	0.561829	-0.000305176	
7.46979	0.560608	0.000152588	
7.46979	0.557861	-0.000305176	
7.46948	0.555725	0	
7.46918	0.553284	0.000305176	
7.47131	0.551758	0.000305176	
7.47375	0.548401	0.0012207	
7.47406	0.548096	0.00106812	
7.47498	0.54657	0.000610352	
7.47467	0.543518	0.000152588	
7.47467	0.541992	0.000152588	
7.47498	0.53894	0.000457764	
7.47467	0.536804	0	
7.47375	0.534058	0	
7.47437	0.531921	0.000305176	
7.47467	0.529785	0.000610352	
7.47467	0.527344	0.000457764	
7.47498	0.523682	0	
7.47437	0.522461	0.000457764	
7.47437	0.519714	0.000762939	
7.47528	0.518188	0.00106812	
7.47467	0.516968	0.000762939	
7.47437	0.513916	0.000152588	
7.47559	0.511475	0.000915527	
7.47498	0.509644	0.000610352	
7.47437	0.507202	0.000305176	
7.47467	0.504456	0	
7.47467	0.501709	-0.000305176	
7.47467	0.499268	0.000152588	
7.47467	0.498047	0.000610352	
7.47589	0.49469	0.000152588	
7.47833	0.492554	0.000305176	
7.47986	0.489807	0.000152588	
7.47894	0.487671	0.000915527	
7.47955	0.485229	0.000762939	
7.48016	0.482788	0.000152588	
7.47986	0.480042	0.000457764	
7.48016	0.47821	0.000152588	
7.47955	0.474243	0.000152588	
7.47955	0.472107	0.000152588	
7.47925	0.469971	-0.000152588	
7.47955	0.467834	0.000305176	
7.48047	0.464478	-0.000152588	
7.47925	0.462952	0.000762939	
7.47986	0.460205	0.000457764	
7.47925	0.457764	0.000152588	
7.47955	0.455627	0.000915527	
7.47955	0.454102	0.000915527	
7.47986	0.450134	0.000305176	
7.47955	0.448608	0.000152588	
7.47955	0.445862	0.000610352	
7.47986	0.443115	0.000457764	
7.47986	0.440674	0.000305176	
7.47894	0.438232	0.000305176	
7.48047	0.435486	0	
7.47925	0.43457	0	
7.47925	0.430908	0.000305176	
7.48047	0.428772	0	
7.48352	0.426025	0.000762939	
7.48444	0.423279	0.000610352	
7.48474	0.421143	0.00106812	
7.48444	0.418701	0.000610352	
7.48444	0.41626	0.000610352	
7.48474	0.413818	0.00137329	
7.48474	0.411377	0.000152588	
7.48444	0.409546	0.000152588	
7.48413	0.404358	0.000305176	
7.48444	0.401611	-0.000457764	
7.48413	0.39917	0	
7.48383	0.395508	0.000305176	
7.48535	0.394897	0	
7.48566	0.391846	0.000152588	
7.48413	0.389404	-0.000152588	
7.48535	0.386963	0.000762939	
7.48474	0.384827	0.000610352	
7.48505	0.381775	-0.000152588	
7.48413	0.379944	0.000305176	
7.48444	0.377197	0.000305176	
7.48505	0.375366	0.000152588	
7.48535	0.371399	0.000152588	
7.48413	0.369263	-0.000457764	
7.48413	0.367126	0	
7.48535	0.36499	0	
7.48444	0.362549	0.000305176	
7.48444	0.360413	0.000152588	
7.48474	0.357056	0.000152588	
7.48596	0.355835	0.00106812	
7.48871	0.352783	0.000915527	
7.48962	0.350647	0.000762939	
7.48962	0.34729	0.000457764	
7.49023	0.345459	0.000610352	
7.48871	0.341797	0.000762939	
7.48932	0.337524	0.000305176	
7.48962	0.335388	0.000152588	
7.48962	0.333252	0.000305176	
7.49023	0.330505	0.000457764	
7.48901	0.327454	0.000457764	
7.48962	0.326233	0.000305176	
7.48962	0.323486	0.000457764	
7.48962	0.320435	0.000457764	
7.48962	0.318604	0.000915527	
7.48932	0.316162	0.000610352	
7.48932	0.312805	0.000610352	
7.48871	0.310669	0.000915527	
7.48932	0.308533	0.000305176	
7.48932	0.306396	0.000305176	
7.48962	0.30365	0	
7.48901	0.301208	-0.000457764	
7.49023	0.298462	-0.000152588	
7.48962	0.296326	0.000610352	
7.48962	0.293884	0	
7.48962	0.291748	0.000762939	
7.48962	0.288391	0.000152588	
7.48932	0.28717	0.000762939	
7.48932	0.283813	0.000610352	
7.48962	0.281372	0.000152588	
7.48932	0.278625	0.000610352	
7.49054	0.276794	0.000610352	
7.49329	0.274353	0.000152588	
7.49451	0.271912	0.000152588	
7.49481	0.26886	-0.000457764	
7.49451	0.267639	0	
7.49451	0.263977	-0.000152588	
7.49512	0.262146	-0.000152588	
7.4942	0.259094	0.000152588	
7.4942	0.257263	0.000305176	
7.49481	0.254517	0.000915527	
7.49512	0.252686	0.00106812	
7.49359	0.252075	0.000457764	
7.49451	0.249023	0.000305176	
7.4942	0.247498	0.000762939	
7.49451	0.245361	0.000152588	
7.49481	0.24231	0.000762939	
7.4942	0.239258	0.000152588	
7.49542	0.237122	0	
7.4942	0.23468	0.000305176	
7.4939	0.232544	0.000152588	
7.49512	0.230103	0.000305176	
7.4942	0.227661	0.000762939	
7.4939	0.22522	0.000305176	
7.49481	0.223083	0.00106812	
7.4939	0.220642	0.000610352	
7.49451	0.219116	0.000305176	
7.4942	0.21759	0.000915527	
7.49481	0.214539	0.000152588	
7.4942	0.213623	0.000152588	
7.4939	0.209656	-0.000152588	
7.49451	0.20813	-0.000457764	
7.49451	0.205078	0.000152588	
7.49481	0.203247	0.000762939	
7.49451	0.199585	0	
7.4939	0.198669	0.000457764	
7.49542	0.195618	-0.000152588	
7.49847	0.194397	0.000762939	
7.49969	0.193176	0.000457764	
7.49939	0.19043	0.000305176	
7.49969	0.187988	0.000457764	
7.49908	0.185852	0	
7.49969	0.183716	0.000152588	
7.49969	0.18158	0.000152588	
7.49939	0.179443	-0.000152588	
7.49908	0.178223	0	
7.49969	0.176392	-0.000152588	
7.49969	0.17395	0	
7.49939	0.170288	0.000457764	
7.49939	0.169678	0.000305176	
7.49878	0.168762	0.000762939	
7.50031	0.16571	0.0012207	
7.49908	0.164185	0.000305176	
7.49878	0.160828	0.000305176	
7.49939	0.159302	0.000457764	
7.49969	0.156555	0.000457764	
7.49908	0.154724	0.000457764	
7.5	0.154114	0	
7.49939	0.151978	0	
7.49939	0.151062	0.000457764	
7.49939	0.148926	0.000305176	
7.49939	0.14679	0.000152588	
7.49878	0.145264	0.000610352	
7.49939	0.141602	0.000610352	
7.5	0.140686	0.000915527	
7.49878	0.139465	0.0012207	
7.49939	0.137024	0.000305176	
7.49908	0.134888	0.000457764	
7.49939	0.131531	0.000305176	
7.49939	0.130615	0.000610352	
7.49939	0.130005	-0.000305176	
7.49908	0.126648	-0.000457764	
7.49847	0.125732	0	
7.49878	0.124817	0.000305176	
7.49939	0.12207	0.000152588	
7.49878	0.119629	0.000305176	
7.49939	0.117188	-0.000152588	
7.50092	0.115051	0.000762939	
7.50305	0.114746	0.000762939	
7.50336	0.11261	0	
7.50458	0.110779	0.000610352	
7.50397	0.110168	0	
7.50397	0.107422	0	
7.50427	0.105896	0	
7.50458	0.105286	0	
7.50488	0.101929	0.000152588	
7.50488	0.100708	-0.000152588	
7.50427	0.0997925	0.000305176	
7.50488	0.0976563	0.000305176	
7.50397	0.0949097	0	
7.50397	0.0924683	0.000762939	
7.50366	0.0921631	0.0012207	
7.50427	0.0909424	0.000762939	
7.50366	0.0869751	0.000305176	
7.50397	0.0863647	0.000610352	
7.50427	0.0854492	0	
7.50336	0.0820923	0.000305176	
7.50458	0.0811768	0.000305176	
7.50427	0.0808716	0	
7.50427	0.0805664	0.000152588	
7.50397	0.0784302	0.000305176	
7.50397	0.0772095	0.000610352	
7.50397	0.0759888	0.000610352	
7.50397	0.0738525	0.000610352	
7.50427	0.0717163	0.000915527	
7.50427	0.071106	0.000610352	
7.50458	0.0674438	0.000457764	
7.50488	0.0674438	0.000610352	
7.50488	0.0665283	0.000152588	
7.50427	0.0643921	0.000610352	
7.50397	0.062561	0	
7.50427	0.0616455	-0.000305176	
7.50427	0.0588989	0.000305176	
7.50397	0.057373	0.000762939	
7.50397	0.057373	0.000152588	
7.50397	0.0567627	0.000457764	
7.50366	0.0537109	0.000152588	
7.50397	0.0537109	0.000762939	
7.50366	0.0518799	0.000762939	
7.50427	0.0494385	0.000305176	
7.50397	0.0476074	0.000305176	
7.50397	0.0479126	0.000610352	
7.50397	0.0466919	0.000305176	
7.50427	0.0448608	0.000152588	
7.50336	0.0427246	-0.000152588	
7.50427	0.0418091	0	
7.50427	0.0387573	0	
7.50488	0.038147	0	
7.50488	0.0375366	0.000457764	
7.50366	0.0372314	0	
7.50366	0.0335693	0.000915527	
7.50458	0.0323486	0.0012207	
7.50793	0.0317383	0.00106812	
7.50916	0.0292969	0.000305176	
7.50977	0.0280762	0.000762939	
7.50885	0.0271606	0.000457764	
7.50854	0.0268555	0.000457764	
7.50916	0.0238037	0	
7.50946	0.0231934	0.000457764	
7.50885	0.0234985	0.000305176	
7.50916	0.022583	0.000457764	
7.50977	0.0195313	0.000305176	
7.50854	0.0195313	0.000457764	
7.50916	0.0186157	0.000305176	
7.50916	0.0170898	0.000915527	
7.50946	0.0146484	0.000915527	
7.50854	0.0131226	0.000305176	
7.50916	0.0137329	0.000762939	
7.50977	0.012207	0.000610352	
7.50885	0.00976563	0.000762939	
7.50885	0.00854492	0.000305176	
7.50885	0.00793457	-0.000305176	
7.50916	0.00793457	-0.000457764	
7.50824	0.00457764	0.000457764	
7.50946	0.00366211	0	
7.50916	0.00335693	0.000457764	
7.50916	0.00244141	-0.000457764	
7.50946	0	0.00106812	
7.50885	-0.000915527	0.000915527	
7.50916	-0.000915527	0.000610352	
7.50916	-0.0012207	0.000457764	
7.50854	-0.00183105	0.000762939	
7.50885	-0.00396729	0.000457764	
7.50885	-0.00671387	0	
7.50946	-0.00640869	-0.000610352	
7.50885	-0.00732422	0	
7.51007	-0.00976563	-0.000457764	
7.50946	-0.010376	0.000305176	
7.50916	-0.0109863	0	
7.50916	-0.0119019	-0.000152588	
7.50885	-0.0146484	0.00106812	
7.50885	-0.0152588	0.00106812	
7.50916	-0.0158691	0.000305176	
7.50885	-0.0161743	0.000152588	
7.50885	-0.0167847	0.000457764	
7.50916	-0.0195313	0.000610352	
7.50946	-0.020752	0.000457764	
7.50885	-0.020752	0	
7.50916	-0.0210571	0.000457764	
7.50885	-0.0213623	0.000152588	
7.50854	-0.0244141	0.000457764	
7.50885	-0.0256348	0.000457764	
7.50946	-0.0253296	0.000457764	
7.50916	-0.0259399	0.000762939	
7.50854	-0.0262451	0.00106812	
7.50854	-0.0292969	0.000915527	
7.50916	-0.0308228	0.000457764	
7.50977	-0.0311279	0.000915527	
7.50977	-0.0308228	0.000762939	
7.50885	-0.0314331	0.000762939	
7.50946	-0.03479	0.000152588	
7.50885	-0.0350952	-0.000305176	
7.50977	-0.0357056	0	
7.50885	-0.0350952	0.000457764	
7.50854	-0.0366211	0.000152588	
7.50885	-0.0396729	0.000457764	
7.50885	-0.0405884	0.000152588	
7.50977	-0.0405884	0.000762939	
7.50854	-0.0402832	0.000305176	
7.50946	-0.0408936	0.000457764	
7.50885	-0.0436401	0.000305176	
7.50977	-0.0448608	0.000457764	
7.50854	-0.0457764	0.000457764	
7.50977	-0.0457764	0.000152588	
7.50916	-0.0457764	-0.000305176	
7.50916	-0.0463867	0.000152588	
7.50885	-0.0485229	-0.000152588	
7.50977	-0.0500488	0.000457764	
7.50977	-0.0500488	0.000152588	
7.50977	-0.0506592	0	
7.50885	-0.0509644	0.000915527	
7.50946	-0.0537109	0.0012207	
7.50946	-0.0552368	0.000610352	
7.50854	-0.055542	0.000305176	
7.50916	-0.055542	0.000610352	
7.50946	-0.0549316	0.000457764	
7.50946	-0.0561523	0.000457764	
7.50885	-0.0588989	0.000152588	
7.50977	-0.0601196	0.000152588	
7.50916	-0.0598145	0	
7.50916	-0.0601196	0.000762939	
7.50977	-0.0601196	0.000457764	
7.50885	-0.0610352	0.000610352	
7.50916	-0.0640869	0.000457764	
7.50946	-0.0650024	0.00152588	
7.50824	-0.0650024	0.00106812	
7.50916	-0.0662231	0	
7.51007	-0.0646973	0.000610352	
7.50946	-0.0656128	0.000152588	
7.50946	-0.0689697	0.000762939	
7.50946	-0.0692749	0.000305176	
7.50916	-0.0695801	-0.000305176	
7.50854	-0.0701904	-0.000152588	
7.50977	-0.0698853	0.000457764	
7.50885	-0.071106	0.000457764	
7.50885	-0.0741577	0	
7.50885	-0.0750732	-0.000152588	
7.50885	-0.0747681	0.000915527	
7.50885	-0.0747681	0.000457764	
7.50916	-0.0747681	0.000457764	
7.50885	-0.0750732	0.000305176	
7.50916	-0.0787354	0.000457764	
7.50977	-0.0793457	0.000152588	
7.50977	-0.0793457	0.000457764	
7.50885	-0.0796509	-0.000457764	
7.50946	-0.0802612	0.000305176	
7.50977	-0.0805664	0.000152588	
7.50946	-0.0830078	0.000152588	
7.50946	-0.0848389	0.000305176	
7.50977	-0.085144	-0.000457764	
7.50854	-0.0848389	0.000762939	
7.50977	-0.085144	0.00106812	
7.50885	-0.0839233	0.000762939	
7.50916	-0.085144	0	
7.50885	-0.0878906	0.000915527	
7.50885	-0.0891113	0.000457764	
7.50854	-0.0894165	0.000152588	
7.50946	-0.0897217	0.000152588	
7.50946	-0.0900269	0.000152588	
7.50946	-0.0900269	0	
7.50854	-0.0930786	0.000457764	
7.50916	-0.0942993	0.000305176	
7.50885	-0.0942993	0.000305176	
7.50824	-0.0946045	0.000457764	
7.50977	-0.0939941	0.00137329	
7.50916	-0.0946045	0.000610352	
7.50977	-0.09552	0.000457764	
7.50916	-0.0982666	0.000915527	
7.50916	-0.098877	0.000457764	
7.50824	-0.098877	0.000610352	
7.50916	-0.098877	0.000152588	
7.51007	-0.0991821	-0.000152588	
7.50885	-0.0994873	-0.000152588	
7.50885	-0.100403	0.000152588	
7.50946	-0.102844	0.000305176	
7.50885	-0.104065	0.000152588	
7.50854	-0.10376	0.000152588	
7.50885	-0.10437	0.00106812	
7.50916	-0.10437	0.000457764	
7.50885	-0.10437	0.000305176	
7.50916	-0.105591	0.000457764	
7.50916	-0.108032	0.000457764	
7.50885	-0.108643	0.000457764	
7.50824	-0.108948	0	
7.50885	-0.109253	-0.000762939	
7.50946	-0.109253	0.000305176	
7.50885	-0.108643	0.000152588	
7.50885	-0.109558	0.000457764	
7.50916	-0.11261	0.000152588	
7.50885	-0.113831	-0.000152588	
7.50885	-0.114441	0.000457764	
7.50885	-0.114746	0.00106812	
7.50854	-0.114441	0.000762939	
7.50885	-0.114746	0.000610352	
7.50916	-0.115051	0.000457764	
7.50885	-0.117798	0.000305176	
7.50916	-0.119019	0.000305176	
7.50885	-0.119324	0.000305176	
7.50885	-0.119324	0.000457764	
7.50916	-0.119324	0	
7.50977	-0.118408	0.000305176	
7.50916	-0.119934	0.000152588	
7.50946	-0.122986	0.000457764	
7.50916	-0.123901	0.000457764	
7.50885	-0.123901	0.0012207	
7.50916	-0.123901	0.000610352	
7.50885	-0.124512	0.000457764	
7.51007	-0.123901	0.000610352	
7.50854	-0.125122	0.000457764	
7.50854	-0.128784	0.000610352	
7.50977	-0.128479	0.000457764	
7.50916	-0.129089	-0.000457764	
7.50946	-0.129089	-0.000152588	
7.50946	-0.128784	0.000305176	
7.50854	-0.129089	0.000457764	
7.50946	-0.130005	0.000305176	
7.50916	-0.1297	0	
7.50916	-0.132446	0.000915527	
7.50916	-0.133667	0.000457764	
7.50946	-0.133362	0.000305176	
7.50885	-0.133667	0.000457764	
7.50916	-0.133667	0.000457764	
7.50946	-0.133972	0.000305176	
7.50854	-0.134583	0	
7.50885	-0.137329	-0.000152588	
7.50946	-0.13855	-0.000152588	
7.50885	-0.13855	0	
7.50916	-0.137939	0.000305176	
7.50946	-0.13855	0.000152588	
7.51007	-0.13855	0	
7.50885	-0.139465	0.000915527	
7.50916	-0.142822	0.0012207	
7.50916	-0.143127	0.00106812	
7.50977	-0.144043	0.000152588	
7.50946	-0.143433	0.000305176	
7.50946	-0.143738	0.000305176	
7.50916	-0.144043	0.000305176	
7.50916	-0.144348	0.000152588	
7.50977	-0.1474	0.000305176	
7.50916	-0.148315	-0.000152588	
7.50854	-0.148315	0.000152588	
7.50916	-0.14801	0.000152588	
7.50977	-0.148315	0.000457764	
7.50885	-0.148315	0.000610352	
7.50885	-0.149536	0.00137329	
7.50916	-0.152283	0.000457764	
7.50793	-0.153503	0.000457764	
7.50519	-0.154114	0.000762939	
