model_ppg1.acq
0.5 msec/sample
3 channels
RSP, X, RSPEC-R
Volts
PPG, X, PPGED-R
Volts
ECG, Y, RSPEC-R
mV
CH1	CH2	CH13	
245596	245596	245596	
4.32404	-0.628967	0.000305176	
4.32343	-0.629578	0	
4.32343	-0.628052	0.000457764	
4.32587	-0.628662	0.000457764	
4.32739	-0.628967	0.00106812	
4.32831	-0.629578	0	
4.3277	-0.628662	0.00106812	
4.32831	-0.628967	0.000457764	
4.32831	-0.628662	0.000457764	
4.32861	-0.628662	0.000762939	
4.328	-0.628662	0.000152588	
4.33014	-0.631409	-0.000152588	
4.33289	-0.633545	0	
4.33319	-0.633545	0.000152588	
4.3335	-0.633545	0	
4.33289	-0.63385	-0.000152588	
4.3338	-0.634155	0.000762939	
4.33319	-0.63324	0.000610352	
4.3335	-0.63324	0.000915527	
4.33319	-0.632935	0.000762939	
4.33563	-0.633545	0	
4.33838	-0.63385	0.000762939	
4.33838	-0.634155	0.000457764	
4.33838	-0.63324	0.000762939	
4.33868	-0.63324	0.000152588	
4.33777	-0.63385	-0.000152588	
4.33868	-0.632935	0.000915527	
4.33777	-0.633545	0.000305176	
4.33838	-0.63324	-0.000152588	
4.34143	-0.63385	0.000305176	
4.34265	-0.633545	0.000915527	
4.34296	-0.634155	0.00106812	
4.34296	-0.632935	0.000457764	
4.34296	-0.633545	0.000762939	
4.34326	-0.63385	0.000305176	
4.34296	-0.634155	-0.000305176	
4.34296	-0.63446	0.0012207	
4.34326	-0.633545	0	
4.34265	-0.634155	-0.000457764	
4.34448	-0.633545	0	
4.34784	-0.63385	0.000457764	
4.34814	-0.633545	0.000152588	
4.34784	-0.63324	0.000610352	
4.34784	-0.634155	0.000610352	
4.34723	-0.63385	0.000762939	
4.34784	-0.636597	0.000305176	
4.34784	-0.637817	0.000915527	
4.34845	-0.638733	0.000610352	
4.34753	-0.635681	0.000305176	
4.35028	-0.63385	0.000152588	
4.3515	-0.63385	0.000305176	
4.35272	-0.63385	-0.000152588	
4.35272	-0.633545	0.000152588	
4.35272	-0.63324	0.000152588	
4.35333	-0.634155	0.000610352	
4.35272	-0.634155	0	
4.35242	-0.63385	0.000610352	
4.35272	-0.63324	0.000915527	
4.35272	-0.632935	0.00106812	
4.35211	-0.633545	0.000915527	
4.35486	-0.63385	0.000610352	
4.35699	-0.633545	0.000457764	
4.35822	-0.633545	0.000457764	
4.35852	-0.633545	0.000457764	
4.35791	-0.63385	0.000152588	
4.35791	-0.63385	-0.000305176	
4.35791	-0.63324	0.000915527	
4.35791	-0.633545	0.000305176	
4.3576	-0.63324	0.000457764	
4.3576	-0.633545	0.000457764	
4.35791	-0.633545	0.000762939	
4.3576	-0.633545	0.00106812	
4.35974	-0.633545	0.00106812	
4.36218	-0.633545	0.000762939	
4.36249	-0.633545	0.000762939	
4.36279	-0.633545	0	
4.3631	-0.631104	0.00106812	
4.36249	-0.628662	0.000152588	
4.36249	-0.628357	-0.000305176	
4.3631	-0.628967	0	
4.3631	-0.628357	0.000762939	
4.3634	-0.628967	0	
4.36249	-0.628662	0	
4.36279	-0.628357	0.000305176	
4.36279	-0.628967	0	
4.3631	-0.628662	0.0012207	
4.36523	-0.625305	0.000457764	
4.36707	-0.625	0.000305176	
4.36676	-0.624084	0.000610352	
4.36798	-0.623779	0.000152588	
4.36737	-0.624084	0.000305176	
4.36737	-0.623474	-0.000305176	
4.36737	-0.621948	0.000305176	
4.36737	-0.619812	0.000152588	
4.36768	-0.618896	-0.000305176	
4.36737	-0.619507	0.000915527	
4.36829	-0.619507	0	
4.36798	-0.618591	0.00106812	
4.36798	-0.61676	0.00152588	
4.36798	-0.614929	0.00106812	
4.36737	-0.614319	0.000305176	
4.37012	-0.614624	0.000610352	
4.37225	-0.613708	0.000610352	
4.37256	-0.610962	0.000610352	
4.37225	-0.610046	-0.000610352	
4.37225	-0.608826	0.000762939	
4.37286	-0.608521	0.000152588	
4.37225	-0.606079	0.000457764	
4.37286	-0.605469	0	
4.37317	-0.604248	0.000457764	
4.37256	-0.604553	0.000915527	
4.37256	-0.601196	0.0012207	
4.37225	-0.599976	0.000610352	
4.37256	-0.59967	0.000457764	
4.37286	-0.59967	0.000305176	
4.37256	-0.596313	0.000457764	
4.37317	-0.594788	0.000915527	
4.37286	-0.593872	0.000152588	
4.37225	-0.591736	-0.000762939	
4.37439	-0.59082	0	
4.37683	-0.588989	0.000457764	
4.37775	-0.586548	0.000305176	
4.37775	-0.584412	0.000457764	
4.37714	-0.585022	0.000610352	
4.37775	-0.58136	0	
4.37714	-0.579529	0.00106812	
4.37744	-0.576782	0.000762939	
4.37744	-0.575256	0.000305176	
4.37775	-0.574036	0.000762939	
4.37744	-0.571899	0.000457764	
4.37744	-0.569763	0.000305176	
4.37714	-0.566711	-0.000305176	
4.37775	-0.565796	0.000305176	
4.37744	-0.56488	0.000152588	
4.37744	-0.562134	-0.000457764	
4.37714	-0.560303	0.000915527	
4.37775	-0.557251	0.000152588	
4.37744	-0.55603	0.000762939	
4.37775	-0.552368	0.000915527	
4.37775	-0.550842	0.000762939	
4.37744	-0.546875	0.000152588	
4.37988	-0.545044	0.000610352	
4.38202	-0.542603	0.000457764	
4.38232	-0.540771	0.000457764	
4.38263	-0.537415	-0.000305176	
4.38232	-0.532532	0.000457764	
4.38202	-0.530701	0.000305176	
4.38171	-0.527344	0.000152588	
4.38293	-0.525818	0.000152588	
4.38232	-0.522766	0.000762939	
4.38232	-0.517578	0.000762939	
4.38232	-0.516968	0.0012207	
4.38171	-0.513	0.000762939	
4.38263	-0.510864	0.000762939	
4.38232	-0.508118	0.000305176	
4.38202	-0.503235	0.00106812	
4.38202	-0.501404	0.000762939	
4.38202	-0.497437	0.000152588	
4.38232	-0.493164	-0.000305176	
4.38263	-0.491333	0	
4.38293	-0.487671	0.000305176	
4.38232	-0.482788	0.000152588	
4.38202	-0.478516	0.000457764	
4.38202	-0.476685	0.000457764	
4.38263	-0.473328	0.000152588	
4.38232	-0.469055	0.0012207	
4.38232	-0.463867	0.000762939	
4.38232	-0.462646	0.000457764	
4.38202	-0.458679	0.000305176	
4.38232	-0.454102	0.000457764	
4.38232	-0.449524	0	
4.38232	-0.444641	-0.000610352	
4.38232	-0.439758	0.000152588	
4.38202	-0.437622	0.000305176	
4.38416	-0.43457	-0.000305176	
4.3869	-0.429688	0.000762939	
4.38782	-0.426025	0.000152588	
4.38721	-0.419922	0.00106812	
4.38721	-0.414429	0.000457764	
4.38721	-0.409851	0.000762939	
4.38721	-0.404968	0.000457764	
4.38721	-0.400391	0.000762939	
4.38721	-0.395203	0.000762939	
4.38721	-0.390015	0.000457764	
4.3869	-0.386047	-0.000457764	
4.38782	-0.383301	0.000457764	
4.3869	-0.379944	0.000610352	
4.38751	-0.375366	0.000610352	
4.38721	-0.370483	0	
4.3869	-0.363159	0.000762939	
4.38721	-0.357056	0.000457764	
4.38751	-0.351257	0.0012207	
4.38782	-0.346069	0.000305176	
4.38751	-0.341187	0.000610352	
4.38721	-0.336609	0.000152588	
4.3869	-0.331421	0.00106812	
4.38721	-0.326538	0.000457764	
4.3869	-0.32135	0.000305176	
4.3869	-0.316772	-0.000305176	
4.38721	-0.3125	0.000305176	
4.38751	-0.307007	0.000457764	
4.38721	-0.299683	0.000152588	
4.38721	-0.293579	0.000457764	
4.38751	-0.287476	0.000305176	
4.38751	-0.282898	0.000305176	
4.3869	-0.278015	0.0012207	
4.3869	-0.272827	0.000305176	
4.38721	-0.265503	0.000152588	
4.38751	-0.258484	0.000305176	
4.3866	-0.253296	0.000305176	
4.38721	-0.248718	0.000305176	
4.38721	-0.239563	-0.000152588	
4.38751	-0.233765	0.000305176	
4.38782	-0.229187	0.000152588	
4.38721	-0.223999	0	
4.3869	-0.216064	0.000915527	
4.38751	-0.209351	0	
4.38812	-0.204163	0.000762939	
4.38751	-0.198975	0.0012207	
4.38751	-0.191345	0.000762939	
4.38751	-0.185242	0.000457764	
4.3869	-0.180054	0.000305176	
4.38751	-0.171814	0.000305176	
4.38751	-0.16571	0.000762939	
4.3869	-0.160217	0	
4.38721	-0.152283	0.000915527	
4.3869	-0.145874	0.000152588	
4.38751	-0.138245	0.000305176	
4.38721	-0.13092	0.000762939	
4.38751	-0.126038	0.000305176	
4.38721	-0.117188	0.000610352	
4.38751	-0.111389	0.0012207	
4.38721	-0.102234	0.000915527	
4.38721	-0.0964355	0.000457764	
4.38751	-0.0921631	0.000305176	
4.38721	-0.0836182	0.00106812	
4.38843	-0.0769043	0.000610352	
4.38751	-0.0689697	0.000305176	
4.38751	-0.0622559	-0.000152588	
4.38751	-0.0546265	0.000152588	
4.38721	-0.0476074	0.000457764	
4.38782	-0.0396729	0.000305176	
4.3869	-0.032959	0.000305176	
4.38782	-0.0274658	0	
4.38721	-0.0201416	0	
4.38721	-0.0131226	0.0012207	
4.38751	-0.00488281	0.000610352	
4.38782	0.00183105	0.000305176	
4.38751	0.00915527	0.000610352	
4.38721	0.0149536	0.000305176	
4.38751	0.0238037	0.000457764	
4.38782	0.0311279	-0.000152588	
4.38721	0.0390625	0.000457764	
4.38721	0.0485229	0.000457764	
4.38751	0.055542	-0.000610352	
4.38782	0.0634766	0.000762939	
4.3869	0.0701904	0.000152588	
4.38721	0.0787354	0.000762939	
4.38721	0.0845337	0.00106812	
4.38721	0.0927734	0.000610352	
4.38721	0.098877	0.000610352	
4.38721	0.107422	0.000610352	
4.38751	0.113525	0.000305176	
4.38751	0.121765	0.000457764	
4.38721	0.13092	-0.000457764	
4.38782	0.13855	0.000610352	
4.38751	0.146484	0.000762939	
4.38751	0.152893	0.000305176	
4.38721	0.161133	0.000610352	
4.38721	0.167847	0.000762939	
4.38812	0.176392	0.000457764	
4.38721	0.185547	0.00152588	
4.38812	0.192871	0.000610352	
4.38721	0.200195	0.000762939	
4.3869	0.206909	0.000152588	
4.38751	0.215149	0.0012207	
4.38782	0.224915	0.000762939	
4.38751	0.231628	0.000762939	
4.38538	0.239258	-0.000305176	
4.38324	0.245972	0.000152588	
4.38171	0.254211	0.000305176	
4.38232	0.26062	0.000152588	
4.38263	0.269775	0.000610352	
4.38324	0.27832	0.000152588	
4.38171	0.285034	0.000152588	
4.38232	0.293884	0.0012207	
4.38202	0.300293	0.000305176	
4.38263	0.308533	0.000762939	
4.38263	0.317078	0.000457764	
4.38263	0.324707	0.000762939	
4.38232	0.332947	0	
4.38232	0.339355	-0.000457764	
4.38232	0.34729	0.000152588	
4.38171	0.353699	0.000457764	
4.38232	0.361938	-0.000152588	
4.38141	0.372009	0.000915527	
4.38263	0.378113	0.000305176	
4.38202	0.387268	0.000610352	
4.38232	0.393372	0.000762939	
4.38263	0.401306	0.00137329	
4.38232	0.408325	0.000457764	
4.38202	0.415649	0.000457764	
4.38232	0.422668	0.000305176	
4.38232	0.430298	0.000915527	
4.38202	0.440063	-0.000305176	
4.38293	0.447083	0.000762939	
4.38263	0.455017	0.000305176	
4.38202	0.461731	0.000457764	
4.38202	0.469666	0.000152588	
4.38202	0.475769	0.000457764	
4.38232	0.484314	0.000762939	
4.38263	0.491028	0.00137329	
4.38202	0.498657	0.000610352	
4.38263	0.505371	0.000610352	
4.38263	0.513916	0	
4.37988	0.520935	0.00106812	
4.37775	0.528259	0.000457764	
4.37744	0.535278	0.000152588	
4.37744	0.543823	-0.000457764	
4.37714	0.549927	0	
4.37836	0.558167	0.000457764	
4.37744	0.564575	0.000152588	
4.37775	0.569763	0.000610352	
4.37805	0.578308	0.000457764	
4.37744	0.584412	0.000152588	
4.37805	0.592041	0.0012207	
4.37744	0.59845	0.000915527	
4.37744	0.606995	0.000305176	
4.37744	0.614319	0.000305176	
4.37836	0.618896	0.000152588	
4.37744	0.626526	-0.000152588	
4.37744	0.633545	0	
4.37805	0.641479	0	
4.37775	0.647888	0	
4.37775	0.653076	-0.000457764	
4.37744	0.6604	0.000915527	
4.37775	0.666809	0	
4.37805	0.672607	0.000457764	
4.37744	0.680542	0.00106812	
4.37714	0.687256	0.00106812	
4.37744	0.692749	0.000305176	
4.37744	0.700684	0.000762939	
4.37744	0.706177	0.000152588	
4.37469	0.71228	0.000610352	
4.37317	0.719604	-0.000305176	
4.37256	0.726624	0.000457764	
4.37225	0.731506	0.000305176	
4.37256	0.736694	0.000305176	
4.37317	0.744019	0.000457764	
4.37317	0.751648	0.000152588	
4.37286	0.756531	0.000457764	
4.37225	0.761414	0.00152588	
4.37256	0.769348	0.000610352	
4.37286	0.775452	0.000457764	
4.37256	0.78125	0	
4.37225	0.785522	0.00106812	
4.37195	0.790405	0.00106812	
4.37256	0.79834	0.000305176	
4.37225	0.804749	-0.000610352	
4.37256	0.809937	-0.000152588	
4.37286	0.814514	0.000457764	
4.37256	0.820313	0.000457764	
4.37256	0.825195	0.000457764	
4.37225	0.829468	0	
4.37286	0.83374	0.000305176	
4.37256	0.84259	0.0012207	
4.37225	0.848694	0.000915527	
4.36981	0.854492	0.000305176	
4.36768	0.859375	0	
4.36768	0.863342	0.000152588	
4.36768	0.869141	-0.000152588	
4.36798	0.873718	0	
4.36737	0.879211	0.000305176	
4.36798	0.883789	0.000762939	
4.36707	0.888977	-0.000457764	
4.36737	0.89386	0.000915527	
4.36707	0.898743	0	
4.36768	0.903625	0.000305176	
4.36707	0.908813	0.0012207	
4.36737	0.913391	0.00106812	
4.36768	0.918274	0.000762939	
4.36798	0.923157	0.000762939	
4.36768	0.924683	0.000305176	
4.36768	0.928345	0.000610352	
4.36707	0.933533	-0.000305176	
4.36768	0.9375	0.000610352	
4.36798	0.942688	0.000457764	
4.36798	0.946655	0.000305176	
4.36523	0.951538	0.000152588	
4.36279	0.953979	0.000305176	
4.36218	0.957947	0.000457764	
4.36249	0.962524	0.00137329	
4.36249	0.967102	0.000457764	
4.36218	0.97168	0.000610352	
4.3631	0.972595	0	
4.36249	0.977478	0.000915527	
4.3634	0.982361	0.000457764	
4.36279	0.987244	0.000305176	
4.36279	0.988159	-0.000152588	
4.36279	0.992126	-0.000610352	
4.36279	0.996399	0.000305176	
4.3631	0.998535	0	
4.36218	1.00189	0.000762939	
4.36279	1.00586	0.000305176	
4.36279	1.00769	0.000152588	
4.36249	1.01166	0.00137329	
4.36279	1.01685	0.000610352	
4.36279	1.01746	0.000762939	
4.36035	1.02051	0.000610352	
4.35852	1.02203	0.000457764	
4.35852	1.0257	0.000152588	
4.3576	1.02783	-0.000152588	
4.3576	1.03119	0.000152588	
4.3573	1.03485	0.000152588	
4.3576	1.03699	-0.000457764	
4.35791	1.04126	0.000610352	
4.3576	1.04279	0.000152588	
4.3576	1.04584	0.000762939	
4.35791	1.04706	0.0012207	
4.35791	1.05042	0.0012207	
4.35791	1.05255	0.000457764	
4.3576	1.05316	0.000305176	
4.35791	1.0556	0.000457764	
4.35791	1.05713	0.000305176	
4.35791	1.06018	-0.000305176	
4.35791	1.0614	0.000762939	
4.35822	1.06262	0.000152588	
4.35486	1.06506	0.000610352	
4.35333	1.06689	0.000457764	
4.35333	1.06781	0.000305176	
4.35272	1.07025	0.000610352	
4.35211	1.07147	0.00137329	
4.35242	1.07269	0.000457764	
4.35242	1.07544	0.000305176	
4.35364	1.07574	0.000457764	
4.35211	1.07697	0.00106812	
4.35272	1.08032	0.000915527	
4.35242	1.08154	0.000610352	
4.35272	1.08154	-0.000152588	
4.35242	1.08154	-0.000305176	
4.35333	1.08246	0.000305176	
4.35242	1.08459	0.000152588	
4.35211	1.08643	0.000305176	
4.35242	1.08673	0.000305176	
4.34967	1.08673	0.000305176	
4.34845	1.08673	0.00106812	
4.34753	1.08734	0.000457764	
4.34814	1.08978	0.000152588	
4.34723	1.091	0.000457764	
4.34723	1.09161	0.000610352	
4.34784	1.09161	0.000305176	
4.34784	1.09131	-0.000457764	
4.34784	1.09192	0.000152588	
4.34784	1.09192	0.000305176	
4.34814	1.0907	-0.000305176	
4.34814	1.091	0.000762939	
4.34814	1.09131	0	
4.34784	1.09131	0.000305176	
4.34814	1.09161	0.00106812	
4.34814	1.09192	0.0012207	
4.34784	1.09192	0.000305176	
4.3457	1.09192	0.000610352	
4.34357	1.09161	0.000610352	
4.34265	1.09192	0.000610352	
4.34296	1.09192	-0.000152588	
4.34357	1.09192	0.000762939	
4.34326	1.09192	0.000305176	
4.34296	1.09192	0.000610352	
4.34326	1.09192	0.000610352	
4.34296	1.09131	0.000152588	
4.34357	1.08887	0.000457764	
4.34265	1.08704	0.0012207	
4.34326	1.08673	0.000610352	
4.34326	1.08643	0.000762939	
4.34418	1.08643	0.000305176	
4.34326	1.08673	0.00106812	
4.34326	1.08398	0.000762939	
4.34326	1.08276	0.000457764	
4.34082	1.08124	-0.000457764	
4.3396	1.08185	-0.000152588	
4.33777	1.08185	0.000305176	
4.33777	1.07941	0.000457764	
4.33777	1.07727	0.000152588	
4.33899	1.07635	0.000305176	
4.33838	1.07666	0	
4.33868	1.07361	0.0012207	
4.33868	1.07208	0.000457764	
4.33807	1.07239	0.000152588	
4.33807	1.06842	0.000610352	
4.33868	1.0672	0.000610352	
4.33777	1.0675	0.000457764	
4.33807	1.06354	-0.000305176	
4.33807	1.06232	0.000152588	
4.33807	1.06201	0.000305176	
4.33533	1.05927	-0.000152588	
4.33411	1.05804	0.000610352	
4.3335	1.05438	0.000305176	
4.33319	1.05225	0.000610352	
4.33289	1.05194	0.00137329	
4.3338	1.04889	0.0012207	
4.33258	1.04736	0.000762939	
4.3335	1.04492	0.000457764	
4.3335	1.0437	0.000457764	
4.33289	1.04156	0.000610352	
4.33319	1.03912	-0.000305176	
4.3335	1.0379	0.000915527	
4.33319	1.03455	0.000305176	
4.33289	1.03241	0.000610352	
4.33258	1.02966	0.000152588	
4.3335	1.02783	0.000152588	
4.33044	1.02539	0.000915527	
4.32892	1.02325	0.0012207	
4.32861	1.01898	0.000915527	
4.3277	1.01532	0.000610352	
4.328	1.01257	0.000152588	
4.328	1.00983	0.00106812	
4.32831	1.008	0.00106812	
4.328	1.00494	0.000305176	
4.32831	1.00342	-0.000610352	
4.328	1.00037	0	
4.328	0.995178	0.000152588	
4.328	0.993958	0.000457764	
4.32831	0.990295	0.000457764	
4.328	0.989075	0.000610352	
4.328	0.984802	0.000152588	
4.328	0.98114	0.000762939	
4.32587	0.979309	0.000610352	
4.32343	0.975342	0.000457764	
4.32312	0.971069	0.000610352	
4.32312	0.969238	0.000457764	
4.32281	0.965881	0.000305176	
4.32281	0.961304	-0.000152588	
4.32251	0.958862	0	
4.32343	0.955505	0.000152588	
4.32312	0.951538	-0.000305176	
4.32343	0.949707	0.000915527	
4.32373	0.945435	0.000152588	
4.32343	0.941162	0.000457764	
4.32312	0.937195	0.00137329	
4.32343	0.935364	0.00106812	
4.32343	0.931091	0.000915527	
4.32068	0.926514	0.000457764	
4.31885	0.925903	0.000457764	
4.31854	0.922241	0.000305176	
4.31763	0.916138	-0.000305176	
4.31824	0.912781	0.000610352	
4.31824	0.907593	0.000152588	
4.31824	0.905151	0.000610352	
4.31854	0.901794	0	
4.31824	0.896912	0.000305176	
4.31854	0.892639	0.000457764	
4.31854	0.890503	0.0012207	
4.31824	0.887451	0.000457764	
4.31824	0.881958	0.000610352	
4.31793	0.877075	-0.000152588	
4.31824	0.873718	0.0012207	
4.31854	0.868225	0.000915527	
4.31549	0.865784	0.000457764	
4.31305	0.863037	-0.000305176	
4.31305	0.858459	-0.000457764	
4.31366	0.852661	0.000305176	
4.31335	0.848083	0.000305176	
4.31396	0.842896	0	
4.31305	0.84198	0.000152588	
4.31305	0.838318	-0.000152588	
4.31335	0.834351	0.000915527	
4.31335	0.828857	0.000457764	
4.31274	0.823975	0.000457764	
4.31396	0.819092	0.000915527	
4.31335	0.813904	0.000457764	
4.31305	0.809326	0.000152588	
4.31335	0.806885	-0.000457764	
4.31091	0.803223	0	
4.30817	0.79895	0.000152588	
4.30847	0.794067	0.000152588	
4.30847	0.78949	0.00106812	
4.30878	0.783997	0.000305176	
4.30847	0.780029	0.000305176	
4.30817	0.774536	0.0012207	
4.30817	0.770569	0.00106812	
4.30878	0.765381	0.000762939	
4.30847	0.759888	0.000762939	
4.30847	0.758057	0.000457764	
4.30847	0.75531	0.000610352	
4.30908	0.750122	-0.000457764	
4.30817	0.744934	0.000152588	
4.30847	0.740662	0.000305176	
4.30603	0.736084	0.000152588	
4.30359	0.730896	0.000457764	
4.30359	0.725708	0.000457764	
4.30298	0.72052	0.000762939	
4.30359	0.715942	0.00106812	
4.30359	0.711365	0.000610352	
4.30359	0.706177	0.000610352	
4.30389	0.701599	0	
4.30389	0.696106	0.00106812	
4.30359	0.690918	0.000762939	
4.30359	0.686951	0.000457764	
4.30298	0.684509	-0.000305176	
4.30389	0.681458	-0.000305176	
4.30328	0.67688	0.000152588	
4.30359	0.671387	0	
4.30084	0.666504	0.000152588	
4.29901	0.661926	0.000305176	
4.2984	0.656433	0	
4.29871	0.652161	0.000915527	
4.29871	0.647583	0.000762939	
4.29871	0.64209	0.000152588	
4.2984	0.637207	0.000610352	
4.2981	0.632629	0.000610352	
4.29871	0.627136	0.000305176	
4.29871	0.623169	0	
4.29871	0.617371	0.000152588	
4.29871	0.613098	0.000152588	
4.2984	0.608215	-0.000457764	
4.29901	0.603027	0.000457764	
4.29871	0.597534	0.000457764	
4.29596	0.593872	0.000457764	
4.29413	0.588379	0.00137329	
4.29413	0.583801	0.00152588	
4.29382	0.58197	0.000762939	
4.29443	0.578003	0.000762939	
4.29321	0.574036	0.000457764	
4.29413	0.568542	0.000305176	
4.29413	0.563965	-0.000305176	
4.29382	0.558777	0.000915527	
4.29352	0.554199	0.000152588	
4.29321	0.549316	0.000305176	
4.29382	0.544128	0.000305176	
4.29321	0.539551	0.000305176	
4.29352	0.534668	0.000457764	
4.29413	0.52948	0.00137329	
4.29169	0.525208	0.000762939	
4.28894	0.519409	0.000457764	
4.28894	0.514221	-0.000152588	
4.28894	0.510254	0.00106812	
4.28864	0.504761	0.000610352	
4.28894	0.499878	0.000457764	
4.28864	0.498047	-0.000610352	
4.28833	0.4953	0	
4.28925	0.489807	0.000152588	
4.28772	0.485229	0.000152588	
4.28864	0.480347	0.000305176	
4.28894	0.475464	0	
4.28833	0.469971	0	
4.28955	0.466614	0.00106812	
4.28833	0.460815	0.000762939	
4.28711	0.455933	0.000610352	
4.28406	0.450439	0.000305176	
4.28345	0.448914	0.000457764	
4.28406	0.446167	0.000152588	
4.28345	0.441284	-0.000152588	
4.28406	0.436401	0.000152588	
4.28345	0.430603	0	
4.28406	0.426636	0	
4.28467	0.421753	0.000762939	
4.28345	0.41687	0	
4.28406	0.412292	0	
4.28406	0.410461	0.000915527	
4.28375	0.406799	0.0012207	
4.28375	0.401917	0.000610352	
4.28375	0.397644	0.000305176	
4.28162	0.392761	0.000762939	
4.27979	0.387573	0.000762939	
4.27887	0.38269	-0.000305176	
4.27887	0.380859	0.000762939	
4.27887	0.377197	0.000305176	
4.27887	0.372314	0.000457764	
4.27887	0.368042	0.000152588	
4.27948	0.362244	0.000305176	
4.27917	0.358582	0.000457764	
4.27826	0.35614	0.0012207	
4.27826	0.352478	0.000915527	
4.27887	0.348511	0.000762939	
4.27887	0.343323	0.000305176	
4.27917	0.33844	0.00137329	
4.27856	0.336914	0.000915527	
4.27643	0.332947	0.000915527	
4.27338	0.328369	-0.000152588	
4.27368	0.323486	-0.000305176	
4.27368	0.318909	0.000305176	
4.27338	0.316467	0.000610352	
4.27399	0.313721	0.000305176	
4.27368	0.308533	0.000305176	
4.27399	0.304871	0	
4.27429	0.302124	0.00106812	
4.27429	0.298767	0.000457764	
4.27368	0.294495	0.000457764	
4.27399	0.289612	0.000305176	
4.27429	0.287476	0.000762939	
4.27399	0.284119	0.000457764	
4.27429	0.279236	-0.000152588	
4.27094	0.274963	-0.000152588	
4.26941	0.272827	0.000305176	
4.2688	0.26947	-0.000457764	
4.26971	0.265198	0.000610352	
4.2688	0.260315	-0.000152588	
4.2688	0.258789	0.000305176	
4.2688	0.254211	0.0012207	
4.26941	0.250549	0.000915527	
4.26941	0.248108	0.000762939	
4.2688	0.245056	0.000762939	
4.2688	0.239868	0.000610352	
4.2691	0.238647	0.000762939	
4.2691	0.235596	-0.000152588	
4.2691	0.231018	0.000610352	
4.26849	0.228577	0.000457764	
4.26636	0.22583	0.000457764	
4.26483	0.220642	0.000305176	
4.26422	0.219116	0.000305176	
4.26453	0.216064	0.000762939	
4.26361	0.211487	0.00137329	
4.26453	0.209045	0.000457764	
4.26392	0.205383	0.000610352	
4.26392	0.203552	0.000152588	
4.26453	0.2005	0.0012207	
4.26483	0.195923	0.000610352	
4.26361	0.194092	0.000457764	
4.26453	0.191345	-0.000152588	
4.26453	0.189514	-0.000457764	
4.26422	0.186462	0.000457764	
4.26392	0.181274	0.000152588	
4.26208	0.180054	0.000152588	
4.25964	0.176086	0.000152588	
4.25903	0.174561	0	
4.25903	0.172119	0.00106812	
4.25964	0.169678	0.000610352	
4.25903	0.166016	0.000457764	
4.25903	0.16449	0.000457764	
4.25934	0.162048	0.000457764	
4.25903	0.156555	0	
4.25995	0.154724	-0.000152588	
4.25964	0.151672	0	
4.25934	0.150146	0.000610352	
4.25934	0.147095	-0.000152588	
4.25903	0.145874	0.000457764	
4.25934	0.142212	0.000305176	
4.25659	0.140991	0	
4.25476	0.137634	0.0012207	
4.25415	0.135803	0.000915527	
4.25385	0.133057	0.000457764	
4.25446	0.130615	0.000915527	
4.25415	0.13031	0.000457764	
4.25415	0.127869	0.000457764	
4.25446	0.126343	-0.000305176	
4.25385	0.122681	0.000915527	
4.25446	0.12085	0.000152588	
4.25385	0.117188	0.000610352	
4.25385	0.115967	0.000152588	
4.25476	0.11322	0.000152588	
4.25507	0.111084	0.000915527	
4.2514	0.110168	0.000915527	
4.25018	0.107117	0.000915527	
4.24927	0.105896	0.000915527	
4.24927	0.103149	0	
4.24927	0.101013	0.000915527	
4.24866	0.0982666	0.000610352	
4.24896	0.0967407	0.000457764	
4.24896	0.0958252	-0.000152588	
4.25018	0.0927734	-0.000305176	
4.24988	0.0915527	0.000457764	
4.24896	0.0909424	0.000305176	
4.24927	0.0872803	0	
4.24927	0.0869751	0.000152588	
4.24927	0.0830078	-0.000305176	
4.24927	0.0814819	0.0012207	
4.24713	0.0820923	0.000610352	
4.24469	0.0793457	0.000457764	
4.24438	0.0769043	0.000305176	
4.24408	0.0772095	0.000610352	
4.24469	0.0747681	0.000152588	
4.24408	0.0726318	-0.000457764	
4.24408	0.072937	0.000152588	
4.245	0.0692749	0.000152588	
4.24469	0.0683594	-0.000152588	
4.24438	0.067749	0.0012207	
4.24408	0.0643921	0.000305176	
4.24438	0.062561	0.000457764	
4.245	0.062561	0.00106812	
4.24438	0.062561	0.00152588	
4.24194	0.0595093	0.000610352	
4.23981	0.0579834	0.000762939	
4.2395	0.057373	0.000762939	
4.2392	0.0546265	0.000610352	
4.23859	0.0531006	-0.000152588	
4.2395	0.0521851	0.000915527	
4.23889	0.0524902	0.000305176	
4.23889	0.0500488	0.000457764	
4.2392	0.0479126	0.000305176	
4.2395	0.0469971	0.000305176	
4.23981	0.0482178	0.00106812	
4.2395	0.045166	0.00106812	
4.23981	0.043335	0.000305176	
4.2392	0.0430298	0.000762939	
4.23676	0.0427246	0.000152588	
4.23584	0.039978	0.00152588	
4.23492	0.0378418	0.000762939	
4.23401	0.038147	0.000457764	
4.23462	0.0369263	-0.000305176	
4.23401	0.03479	-0.000305176	
4.23462	0.0332642	0.000610352	
4.23431	0.032959	0.000457764	
4.23431	0.0332642	0.000305176	
4.2337	0.032959	0.000152588	
4.23431	0.0296021	-0.000152588	
4.23431	0.0286865	0.0012207	
4.23462	0.027771	0.000457764	
4.23462	0.027771	0.000305176	
4.23218	0.0274658	0.000457764	
4.22943	0.0250244	0.000610352	
4.22943	0.0234985	0.000152588	
4.22943	0.0231934	-0.000152588	
4.22943	0.0234985	0.000152588	
4.22974	0.0231934	0.000305176	
4.22943	0.022583	-0.000305176	
4.22913	0.0201416	0.000915527	
4.22943	0.0186157	0.000457764	
4.22913	0.0180054	0.000610352	
4.22974	0.0186157	0.0012207	
4.23004	0.0177002	0.00167847	
4.23004	0.0177002	0.000610352	
4.22943	0.0152588	0.000762939	
4.2276	0.0137329	0.000610352	
4.22455	0.0128174	0.000762939	
4.22455	0.0131226	-0.000152588	
4.22455	0.0134277	0.000610352	
4.22394	0.0131226	0.000305176	
4.22455	0.0131226	0.000457764	
4.22516	0.010376	0.000457764	
4.22485	0.00854492	0.000915527	
4.22455	0.00823975	0.000762939	
4.22424	0.00823975	0.00106812	
4.22546	0.00854492	0.000762939	
4.22516	0.0088501	0.000610352	
4.22485	0.00823975	0	
4.22455	0.00549316	0.0012207	
4.2218	0.00366211	0.000762939	
4.22058	0.00274658	0.000610352	
4.21967	0.00335693	-0.000457764	
4.22028	0.00366211	-0.000152588	
4.21997	0.00335693	0.000152588	
4.21997	0.00335693	0.000305176	
4.21967	0.00305176	0	
4.21936	0.00335693	0	
4.21936	-0.000305176	-0.000152588	
4.21967	-0.000305176	0.00152588	
4.21997	-0.000915527	0.000610352	
4.21967	-0.0012207	0.000457764	
4.21967	-0.0012207	0.000457764	
4.21783	-0.00152588	0.000305176	
4.2157	-0.00152588	0	
4.21417	-0.000915527	-0.000457764	
4.21478	-0.00183105	0.000305176	
4.21448	-0.00427246	0.000305176	
4.21509	-0.00610352	-0.000305176	
4.21509	-0.00610352	0.000915527	
4.21417	-0.00671387	0.000305176	
4.21509	-0.00640869	0.000152588	
4.21509	-0.00610352	0.0012207	
4.21509	-0.00610352	0.00152588	
4.21448	-0.00610352	0.000457764	
4.21478	-0.00549316	0.000610352	
4.21234	-0.00610352	0.000457764	
4.21021	-0.00640869	0.000762939	
4.2099	-0.00915527	0.000152588	
4.2099	-0.010376	0.000762939	
4.2099	-0.0109863	0.000457764	
4.21021	-0.0109863	0.000457764	
4.21021	-0.0109863	0.000457764	
4.21021	-0.0119019	0.000305176	
4.21021	-0.0115967	0.000610352	
4.21021	-0.0109863	0.00106812	
4.21021	-0.0109863	0.000762939	
4.2099	-0.0106812	0.000915527	
4.2099	-0.0109863	0.000305176	
4.20715	-0.0137329	0.00106812	
4.20532	-0.0152588	0.000915527	
4.20471	-0.015564	0.000610352	
4.20441	-0.0164795	-0.000457764	
4.20471	-0.0158691	-0.000457764	
4.20471	-0.015564	0.000457764	
4.20563	-0.0158691	0.000152588	
4.20532	-0.0161743	0.000152588	
4.20471	-0.0161743	0.000305176	
4.20471	-0.0161743	-0.000152588	
4.20532	-0.0158691	0.0012207	
4.20471	-0.0158691	0.000457764	
4.20471	-0.0186157	0.000305176	
4.20258	-0.020752	0.000305176	
4.20044	-0.020752	0.000610352	
4.20044	-0.0204468	0.000152588	
4.20044	-0.0210571	-0.000152588	
4.19952	-0.0210571	0.000152588	
4.19922	-0.0210571	0.000152588	
4.19922	-0.0213623	-0.000305176	
4.20044	-0.0213623	0.000610352	
4.20013	-0.020752	0.000152588	
4.20013	-0.0216675	0.000457764	
4.20013	-0.0238037	0.00137329	
4.19983	-0.0253296	0.00106812	
4.19708	-0.0259399	0.000915527	
4.19525	-0.0256348	0.000152588	
4.19556	-0.0256348	0.000610352	
4.19525	-0.0256348	0.00106812	
4.19495	-0.0256348	0	
4.19434	-0.0250244	0.000762939	
4.19525	-0.0259399	0.000305176	
4.19495	-0.0262451	0.000457764	
4.19434	-0.0289917	0.000305176	
4.19525	-0.0302124	0.000457764	
4.19464	-0.0308228	0.000457764	
4.19434	-0.0311279	0.0012207	
4.1922	-0.0305176	0.000762939	
4.19067	-0.0311279	0.000762939	
4.18976	-0.0305176	0	
4.19067	-0.0305176	0.0012207	
4.18976	-0.0305176	0.000762939	
4.19037	-0.0305176	0.000152588	
4.19006	-0.0341797	0	
4.19006	-0.0350952	-0.000152588	
4.19006	-0.0360107	0.000152588	
4.18976	-0.0354004	0.000610352	
4.18976	-0.0357056	0.000152588	
4.18976	-0.0357056	0.000457764	
4.18701	-0.0354004	-0.000152588	
4.18549	-0.0360107	0.00152588	
4.18579	-0.0354004	0.000610352	
4.18518	-0.0387573	0.000152588	
4.18488	-0.039978	0.000152588	
4.18518	-0.039978	0.000762939	
4.18488	-0.0411987	0.000457764	
4.18579	-0.0408936	-0.000152588	
4.18549	-0.0408936	0	
4.18549	-0.0402832	0.000305176	
4.18518	-0.0411987	-0.000457764	
4.18579	-0.0439453	0.000610352	
4.18274	-0.0454712	0.000457764	
4.1806	-0.0457764	0.000305176	
4.17999	-0.0454712	0.000915527	
4.1803	-0.0454712	0.00167847	
4.1806	-0.0457764	0.000915527	
4.17999	-0.045166	0.000305176	
4.1803	-0.0457764	0.000762939	
4.1803	-0.0485229	0.000915527	
4.18091	-0.0494385	-0.000305176	
4.1803	-0.050354	0.000457764	
4.17999	-0.050354	0.000457764	
4.18091	-0.0497437	0.000610352	
4.17816	-0.050354	0.000305176	
4.17572	-0.0500488	0.000152588	
4.17603	-0.0527954	0.000762939	
4.1748	-0.0546265	0.00137329	
4.1745	-0.0549316	0.000762939	
4.17542	-0.055542	0.000305176	
4.17542	-0.0549316	0.000152588	
4.17572	-0.0552368	0.00152588	
4.17542	-0.055542	0.000915527	
4.17542	-0.0585938	0.000610352	
4.17542	-0.0601196	-0.000305176	
4.17236	-0.0604248	-0.000610352	
4.17084	-0.0601196	0.000305176	
4.17023	-0.0598145	0.000610352	
4.17084	-0.0601196	0.000152588	
4.17053	-0.0634766	0.000152588	
4.17084	-0.0653076	-0.000152588	
4.17053	-0.0656128	0.0012207	
4.17023	-0.0650024	0.000762939	
4.17023	-0.0650024	0.000305176	
4.17114	-0.0656128	0.000152588	
4.17053	-0.0683594	0.000610352	
4.16809	-0.0701904	0	
4.16595	-0.0698853	0	
4.16595	-0.0698853	0.000152588	
4.16534	-0.0695801	0.000152588	
4.16504	-0.072937	-0.000457764	
4.16534	-0.0744629	0	
4.16595	-0.0750732	0.000305176	
4.16565	-0.0747681	0.000305176	
4.16473	-0.0741577	0.000915527	
4.16565	-0.0775146	0.00106812	
4.16504	-0.0796509	0.000305176	
4.1629	-0.0799561	0.000762939	
4.16138	-0.0796509	0.000610352	
4.16077	-0.0796509	0.000610352	
4.16077	-0.0827026	-0.000457764	
4.16046	-0.0842285	0.000915527	
4.15985	-0.0842285	0.000305176	
4.16046	-0.0848389	0.000457764	
4.16046	-0.0848389	0.000457764	
4.16077	-0.0872803	0.000457764	
4.16077	-0.0888062	0.000762939	
4.15985	-0.0897217	0.000762939	
4.15802	-0.0897217	0.000610352	
4.15588	-0.0900269	0.000610352	
4.15588	-0.0924683	0.000152588	
4.15527	-0.0939941	0.0012207	
4.15527	-0.0939941	0.000610352	
4.15527	-0.0942993	0.000915527	
4.15558	-0.0976563	0	
4.15527	-0.098877	-0.000610352	
4.15588	-0.098877	0.000305176	
4.15588	-0.098877	0.000610352	
4.15497	-0.0994873	0	
4.15283	-0.103149	0.000152588	
4.151	-0.10376	-0.000305176	
4.151	-0.10376	0.00137329	
4.14978	-0.10498	0.000762939	
4.1507	-0.107727	0.000152588	
4.1507	-0.108643	0.000457764	
4.151	-0.109253	0.000915527	
4.1507	-0.109863	0.000305176	
4.1507	-0.111389	0.000305176	
4.151	-0.113525	0.000152588	
4.1507	-0.115051	0.000152588	
4.14856	-0.113831	-0.000305176	
4.14581	-0.116882	0.000915527	
4.14551	-0.119019	0	
4.14612	-0.119019	0.000305176	
4.14581	-0.119324	0.000915527	
4.14459	-0.122375	0.000915527	
4.14551	-0.123596	0.000610352	
4.14551	-0.123901	0.000610352	
4.14581	-0.123596	0.000762939	
4.1449	-0.126953	0.000762939	
4.14368	-0.128784	0.000152588	
4.14154	-0.128174	0.000762939	
4.14124	-0.129395	0.000305176	
4.14093	-0.131836	0.000152588	
4.14093	-0.134277	0.000152588	
4.14124	-0.133362	0.000457764	
4.14063	-0.133667	0.000762939	
4.14063	-0.136414	0.00106812	
4.14093	-0.137939	0.000762939	
4.14063	-0.13916	0.000762939	
4.13849	-0.141907	0.000305176	
4.13635	-0.143127	0.0012207	
4.13605	-0.143738	0.000610352	
4.13635	-0.143127	0.000762939	
4.13574	-0.14679	-0.000305176	
4.13574	-0.14801	-0.000762939	
4.13574	-0.148926	0.000305176	
4.13574	-0.148621	0.000610352	
4.13574	-0.151367	0.000305176	
4.13574	-0.153198	0	
4.13483	-0.152893	-0.000152588	
4.1333	-0.15625	0.00152588	
4.13147	-0.157471	0.000610352	
4.13086	-0.158386	0.000457764	
4.13055	-0.158386	0.000152588	
4.13086	-0.161133	0.000915527	
4.13055	-0.163269	0	
4.13086	-0.162964	0.000305176	
4.13116	-0.166016	0	
4.13086	-0.167542	0.000152588	
4.13055	-0.168152	-0.000305176	
4.12842	-0.170898	0.000762939	
4.12689	-0.172729	0.000457764	
4.12598	-0.172424	0.000305176	
4.12567	-0.172424	0.00106812	
4.12598	-0.175781	0.00137329	
4.12598	-0.177307	0.000610352	
4.12628	-0.177917	0.000305176	
4.12598	-0.181274	0.000762939	
4.12537	-0.183105	0.000915527	
4.12567	-0.183105	-0.000152588	
4.12323	-0.183105	0.000610352	
4.12201	-0.186157	0.000457764	
4.12109	-0.187378	0.000457764	
4.12109	-0.187683	0.000457764	
4.12079	-0.19043	0.000305176	
4.12109	-0.192261	0.000762939	
4.12109	-0.192566	0.000762939	
4.12109	-0.195923	0.0012207	
4.12018	-0.196838	0.000762939	
4.1214	-0.197754	0	
4.11865	-0.198059	0.0012207	
4.11652	-0.19989	0.000457764	
4.11652	-0.201721	0.000457764	
4.1156	-0.202332	-0.000305176	
4.11591	-0.205688	-0.000305176	
4.11621	-0.206299	0.000305176	
4.1156	-0.20752	0.000305176	
4.11621	-0.209961	0.000762939	
4.1153	-0.211792	0.000152588	
4.11316	-0.212708	-0.000152588	
4.11102	-0.212402	0.0012207	
4.11102	-0.215149	0.000457764	
4.11041	-0.216675	0.000457764	
4.11102	-0.217285	0.000610352	
4.11102	-0.221252	0.000610352	
4.11133	-0.221558	0	
4.11102	-0.222168	0.000152588	
4.11133	-0.22583	0	
4.11133	-0.227051	0.000305176	
4.10889	-0.226746	-0.000152588	
4.10675	-0.230103	0.000915527	
4.10645	-0.231934	0.000457764	
4.10583	-0.231934	0.000305176	
4.10614	-0.231323	0.000915527	
4.10583	-0.234375	0.0012207	
4.10614	-0.236511	0.000305176	
4.10614	-0.236206	0.000610352	
4.10583	-0.239563	0.000610352	
4.10431	-0.240784	0.000610352	
4.10187	-0.241699	-0.000152588	
4.10126	-0.244751	0.000762939	
4.10217	-0.246277	0.000152588	
4.10095	-0.246582	0.000457764	
4.10095	-0.246582	0	
4.10095	-0.249329	0.000457764	
4.10095	-0.250854	0.000915527	
4.10095	-0.250854	0.00106812	
4.09851	-0.254517	0.000915527	
4.09698	-0.256042	0.000305176	
4.09698	-0.256958	0	
4.09668	-0.258484	0.00167847	
4.09515	-0.26062	0.000610352	
4.09576	-0.26062	0.000457764	
4.09607	-0.261536	-0.000152588	
4.09607	-0.264282	0	
4.09668	-0.265503	0.000152588	
4.09393	-0.266113	0.000457764	
4.09241	-0.268555	0.000152588	
4.09088	-0.270081	0.000152588	
4.09088	-0.270996	-0.000152588	
4.09119	-0.270996	0.000915527	
4.09119	-0.274048	0.000610352	
4.09149	-0.275879	0.000152588	
4.0918	-0.276184	0.000305176	
4.0918	-0.279541	0.000610352	
4.08905	-0.280151	0.000152588	
4.08722	-0.280457	-0.000152588	
4.0863	-0.281067	0	
4.0863	-0.283813	-0.000152588	
4.08661	-0.285034	-0.000457764	
4.0863	-0.285645	0.000610352	
4.08539	-0.288696	0.000305176	
4.0863	-0.290222	0	
4.08539	-0.289917	0.000915527	
4.08386	-0.291138	0.0012207	
4.08173	-0.293274	0.000915527	
4.08142	-0.295105	0.000457764	
4.08142	-0.295715	0.000457764	
4.08142	-0.298157	0.000610352	
4.08112	-0.300598	0	
4.08173	-0.300598	0.000915527	
4.08112	-0.299683	0.000152588	
4.07867	-0.30304	0.000762939	
4.07715	-0.305176	0.000457764	
4.07593	-0.305176	0	
4.07593	-0.308533	0.000457764	
4.07623	-0.310059	0.000915527	
4.07623	-0.310669	0.000915527	
4.07654	-0.310974	0.000305176	
4.07684	-0.31311	0	
4.07684	-0.314636	0.00152588	
4.0741	-0.315247	0.000610352	
4.07227	-0.317993	0.000457764	
4.07104	-0.319214	-0.000152588	
4.07074	-0.319519	-0.000305176	
4.07166	-0.319824	0.000305176	
4.07104	-0.322266	0.000457764	
4.07135	-0.324707	0.000152588	
4.07166	-0.324707	0.000152588	
4.06891	-0.325012	-0.000152588	
4.06647	-0.328064	0.000915527	
4.06677	-0.328674	0.000457764	
4.06647	-0.329285	0.000152588	
4.06677	-0.32959	0.000762939	
4.06647	-0.332031	0.000457764	
4.06616	-0.334778	0.000152588	
4.06677	-0.333862	-0.000152588	
4.06403	-0.337524	0	
4.0625	-0.33844	0.000305176	
4.06158	-0.339355	-0.000152588	
4.06219	-0.339355	0.000915527	
4.06189	-0.342712	0.000457764	
4.06189	-0.344543	0.000152588	
4.06189	-0.344238	0.00106812	
4.06158	-0.345154	0.00106812	
4.05914	-0.34729	0.000610352	
4.05701	-0.349121	0.000457764	
4.05731	-0.348816	0.000457764	
4.0564	-0.349426	0.000305176	
4.05609	-0.352173	0.000152588	
4.05701	-0.354004	0.000915527	
4.05731	-0.354309	0.000152588	
4.0567	-0.354309	0.000457764	
4.05457	-0.357361	0.000305176	
4.05243	-0.359192	0.000457764	
4.05212	-0.359192	0.000305176	
4.05182	-0.358276	0.000762939	
4.05182	-0.361938	0.000915527	
4.05212	-0.36377	0.000457764	
4.05182	-0.364075	0	
4.05182	-0.364075	0.0012207	
4.04938	-0.366821	0.000457764	
4.04724	-0.368958	0.000762939	
4.04694	-0.368958	0	
4.04724	-0.368958	-0.000457764	
4.04633	-0.37262	0.000305176	
4.04694	-0.373535	0.000457764	
4.04724	-0.374146	0.000305176	
4.04663	-0.374451	0.000152588	
4.0451	-0.37384	-0.000152588	
4.04236	-0.376892	0.0012207	
4.04175	-0.377808	0.000915527	
4.04175	-0.379028	0.000610352	
4.04175	-0.378113	0.000457764	
4.04205	-0.382385	0.000610352	
4.04175	-0.38269	0.000152588	
4.04175	-0.382996	0.000152588	
4.03992	-0.384216	-0.000305176	
4.03717	-0.386963	-0.000152588	
4.03687	-0.387878	-0.000305176	
4.03687	-0.388184	0.000610352	
4.03717	-0.388794	0.000305176	
4.03625	-0.391541	0.000152588	
4.03717	-0.392761	0.000762939	
4.03687	-0.393066	0.0012207	
4.03442	-0.392761	0.000762939	
4.03259	-0.393677	0.000610352	
4.03198	-0.397034	0.000762939	
4.03259	-0.397949	0.000457764	
4.03259	-0.39856	0.000152588	
4.03229	-0.398254	0.000457764	
4.03198	-0.401306	0.000152588	
4.02954	-0.402527	0.000457764	
4.02832	-0.404053	0.000152588	
4.02771	-0.403442	0.000152588	
4.0274	-0.403137	0.000610352	
4.0274	-0.406494	0.000762939	
4.02771	-0.407104	0.000915527	
4.0271	-0.40863	0.000762939	
4.0271	-0.407715	0	
4.02527	-0.408325	0.0012207	
4.02283	-0.411377	0.000305176	
4.02161	-0.412903	0.000457764	
4.02161	-0.413513	-0.000152588	
4.02252	-0.412598	-0.000305176	
4.02283	-0.412903	0	
4.02222	-0.41626	0.000762939	
4.02161	-0.41748	0.000152588	
4.02039	-0.418091	0.000457764	
4.01794	-0.417786	-0.000152588	
4.01794	-0.421143	0.00106812	
4.01733	-0.422058	0.000915527	
4.01764	-0.422363	0.000152588	
4.01703	-0.422668	0.000457764	
4.01703	-0.422974	0.000457764	
4.01703	-0.426331	0.000457764	
4.01489	-0.427551	0	
4.01367	-0.427856	0.000457764	
4.01245	-0.428162	0.000152588	
4.01245	-0.428467	-0.000305176	
4.01245	-0.430603	0.000762939	
4.01245	-0.431824	0.000457764	
4.01215	-0.433044	0.000305176	
4.01031	-0.432739	0.000762939	
4.00879	-0.432739	0.00167847	
4.00726	-0.432739	0.000457764	
4.00787	-0.435486	0.000305176	
4.00726	-0.437622	0.000610352	
4.00726	-0.437012	0.000610352	
4.00726	-0.437622	0	
4.00757	-0.437317	0.000457764	
4.00513	-0.440979	0.000152588	
4.00299	-0.441895	0.000457764	
4.00238	-0.44342	0.000457764	
4.00269	-0.44281	0.000457764	
4.00269	-0.4422	0.000610352	
4.00238	-0.442505	0.000610352	
4.00269	-0.445557	0.000915527	
4.00085	-0.446777	0.000457764	
3.99811	-0.447083	-0.000152588	
3.9975	-0.447083	0.00106812	
3.99719	-0.447083	0.000305176	
3.9978	-0.449829	0.000457764	
3.99719	-0.452271	0	
3.99719	-0.452271	-0.000305176	
3.99506	-0.452881	0	
3.99353	-0.45166	0.000610352	
3.99292	-0.452881	0.000152588	
3.99231	-0.455627	0.000610352	
3.99292	-0.457153	-0.000762939	
3.992	-0.457153	0.00152588	
3.99292	-0.457764	0.000762939	
3.99017	-0.457153	0.000610352	
3.98834	-0.458069	0.000762939	
3.98804	-0.460205	0.000610352	
3.98743	-0.462341	0.000457764	
3.98743	-0.462341	0	
3.98743	-0.462036	0	
3.98773	-0.462646	0.000305176	
3.98804	-0.462036	0	
3.98529	-0.462646	0.000457764	
3.98407	-0.465393	0.000457764	
3.98285	-0.466919	0.000610352	
3.98254	-0.467224	0.000610352	
3.98285	-0.466614	0.00137329	
3.98285	-0.467529	0.000915527	
3.98254	-0.467834	0.000305176	
3.98041	-0.46936	0.000762939	
3.97919	-0.471191	0.000610352	
3.97766	-0.471802	-0.000152588	
3.97766	-0.472412	0.000915527	
3.97736	-0.471802	0.000457764	
3.97797	-0.471802	0.000305176	
3.97552	-0.471802	0.000152588	
3.97339	-0.475464	0.000457764	
3.97247	-0.476379	0.000762939	
3.97217	-0.476379	0.000915527	
3.97308	-0.476685	0.000915527	
3.97308	-0.476379	0.000457764	
3.97247	-0.476379	0.000152588	
3.97034	-0.476379	0.00152588	
3.96851	-0.47699	0.000457764	
3.9682	-0.479736	0.000762939	
3.9682	-0.481262	0.000152588	
3.96851	-0.481262	-0.000152588	
3.96759	-0.481567	-0.000152588	
3.9679	-0.480957	0.000762939	
3.96484	-0.481567	0	
3.96332	-0.481567	0.000610352	
3.96332	-0.481262	-0.000152588	
3.96332	-0.484924	0.00152588	
3.96332	-0.486755	0.000457764	
3.96332	-0.48645	0.000610352	
3.96057	-0.486145	0.000610352	
3.95874	-0.48584	0.000457764	
3.95813	-0.486145	0.000152588	
3.95752	-0.48645	0.000152588	
3.95782	-0.486145	-0.000152588	
3.95782	-0.489502	0	
3.95874	-0.491333	-0.000305176	
3.95569	-0.491638	0.000762939	
3.95355	-0.491333	0.000305176	
3.95294	-0.491028	0.000305176	
3.95355	-0.491638	0.000762939	
3.95325	-0.491028	0.00137329	
3.95264	-0.491028	0.000762939	
3.95081	-0.491943	0.000305176	
3.94867	-0.49469	0.000762939	
3.94867	-0.496521	0.000762939	
3.94867	-0.496216	0	
3.94836	-0.496826	0.000762939	
3.94806	-0.497131	0	
3.94592	-0.496216	0.000305176	
3.94379	-0.495911	0.000457764	
3.94348	-0.496826	0.000152588	
3.94379	-0.495911	0.000457764	
3.94287	-0.496826	0.000457764	
3.94379	-0.499878	0.00137329	
3.94073	-0.500488	0.000762939	
3.93829	-0.501404	0.000305176	
3.93799	-0.501709	0.00137329	
3.9386	-0.501099	0.000457764	
3.9386	-0.501099	0.000610352	
3.93768	-0.502014	0	
3.93585	-0.500793	-0.000610352	
3.93433	-0.501709	0	
3.93341	-0.501099	0.000457764	
3.93341	-0.503845	0.000152588	
3.93341	-0.506287	0.000152588	
3.93341	-0.505981	-0.000610352	
3.93097	-0.506287	0.00152588	
3.92944	-0.505981	0.000610352	
3.92853	-0.505981	0.000610352	
3.92853	-0.505981	0.000305176	
3.92853	-0.505676	0.000457764	
3.92853	-0.506592	0.000305176	
3.9267	-0.505676	0.000305176	
3.92395	-0.505981	-0.000152588	
3.92334	-0.505676	0	
3.92334	-0.505981	-0.000457764	
3.92303	-0.509033	0.000915527	
3.92303	-0.511169	0.000152588	
3.92059	-0.511169	0.000305176	
3.91846	-0.511169	0.000762939	
3.91846	-0.510864	0.00106812	
3.91846	-0.511475	0.000915527	
3.91907	-0.51178	0.000610352	
3.91663	-0.51178	0.000457764	
3.91388	-0.511475	0.000610352	
3.91357	-0.511169	-0.000152588	
3.91357	-0.510864	0.000610352	
3.91388	-0.511169	0.000457764	
3.91388	-0.510559	0.000457764	
3.91083	-0.511475	0.000610352	
3.90991	-0.510559	0.000305176	
3.90869	-0.510864	0.000152588	
3.90869	-0.510559	0.000762939	
3.90839	-0.511475	0.00106812	
3.9093	-0.513916	0.000610352	
3.90656	-0.515747	0.000305176	
3.90503	-0.516357	0.0012207	
3.9035	-0.516663	0.000610352	
3.90411	-0.516052	0.000305176	
3.9035	-0.516357	0	
3.90167	-0.516357	-0.000305176	
3.89954	-0.516052	0.000152588	
3.89923	-0.515442	0.000457764	
3.89893	-0.516968	-0.000152588	
3.89923	-0.515747	0.000152588	
3.89648	-0.516357	-0.000457764	
3.89435	-0.516052	0.00137329	
3.89435	-0.515442	0.000762939	
3.89404	-0.515747	0.000305176	
3.89404	-0.516357	0.000305176	
3.89374	-0.515442	0.000457764	
3.8916	-0.515747	0.000152588	
3.89008	-0.516052	0.000152588	
3.88947	-0.516357	0.000152588	
3.88916	-0.515442	0.000152588	
3.88855	-0.515747	-0.000610352	
3.88702	-0.515747	0.000457764	
3.88489	-0.515747	0.000457764	
3.88458	-0.516052	0.000152588	
3.88397	-0.515442	0.000915527	
3.88428	-0.515442	0.000762939	
3.88123	-0.516052	0.000610352	
3.8797	-0.516052	0.000457764	
3.87939	-0.516357	0.000457764	
3.87939	-0.515747	0.000457764	
3.87939	-0.516052	0	
3.87695	-0.512085	0.000762939	
3.87512	-0.511475	0	
3.8739	-0.510864	0.000457764	
3.87451	-0.511169	0.000457764	
3.87451	-0.510559	0.000305176	
3.87177	-0.510864	0.00106812	
3.86993	-0.510559	0.000610352	
3.86963	-0.510864	0.00106812	
3.86963	-0.511169	0.000610352	
3.86871	-0.510254	0.000152588	
3.86749	-0.511169	0.00152588	
3.86536	-0.510254	0.000152588	
3.86505	-0.508118	0.000610352	
3.86444	-0.506897	0.000152588	
3.86475	-0.506287	-0.000457764	
3.8623	-0.505676	0.000152588	
3.85986	-0.506287	0.000457764	
3.85956	-0.505676	0.000457764	
3.85895	-0.506287	0.000152588	
3.85986	-0.505981	-0.000457764	
3.85681	-0.50293	0.0012207	
3.85529	-0.501404	0.000762939	
3.85529	-0.501709	0.000457764	
3.85437	-0.501099	0.000152588	
3.85498	-0.501404	0.000610352	
3.85254	-0.501099	0.000610352	
3.84979	-0.497437	0.000610352	
3.8501	-0.497131	-0.000152588	
3.84949	-0.496826	0.000305176	
3.84979	-0.495911	-0.000152588	
3.84735	-0.496521	0.000915527	
3.84491	-0.493164	0.000457764	
3.8446	-0.491943	0.000152588	
3.8443	-0.491333	0.000762939	
3.8443	-0.491028	0.00152588	
3.84247	-0.488586	0.000305176	
3.84003	-0.48645	0.000305176	
3.83972	-0.48584	0.000457764	
3.83972	-0.48645	0.000152588	
3.83881	-0.482788	0.000305176	
3.83698	-0.482178	0.000915527	
3.83514	-0.481262	0.000457764	
3.83423	-0.47821	0.000457764	
3.83545	-0.47699	0	
3.83209	-0.47699	0.000610352	
3.83057	-0.473633	0.000610352	
3.83026	-0.472107	0.000457764	
3.82965	-0.471191	0.000915527	
3.82996	-0.469055	0.000457764	
3.8269	-0.467529	0	
3.82568	-0.466919	0.00137329	
3.82507	-0.463257	0.000457764	
3.82507	-0.462341	0.000457764	
3.82568	-0.458984	0	
3.82263	-0.457153	-0.000457764	
3.8208	-0.457153	0.000152588	
3.82019	-0.453796	0.000305176	
3.8205	-0.452271	0	
3.81805	-0.449219	0.000152588	
3.81561	-0.447388	0	
3.81531	-0.443726	0.0012207	
3.81531	-0.44342	0.000610352	
3.81531	-0.443115	0.000457764	
3.81256	-0.439148	0.000610352	
3.81073	-0.437927	0.000610352	
3.81104	-0.434265	0.000152588	
3.81042	-0.432739	0.000152588	
3.80768	-0.429077	-0.000457764	
3.80615	-0.425415	0.000152588	
3.80554	-0.423279	-0.000152588	
3.80463	-0.419312	0.000610352	
3.80524	-0.418396	0.000457764	
3.8028	-0.415039	0.000152588	
3.80066	-0.413208	0.000305176	
3.80035	-0.409241	0.0012207	
3.80066	-0.405579	0.000610352	
3.79852	-0.403442	0.000152588	
3.79608	-0.39978	0.000915527	
3.79547	-0.397949	0.000762939	
3.79547	-0.394897	-0.000152588	
3.79608	-0.39093	0.000610352	
3.79272	-0.388489	0.000305176	
3.7915	-0.385437	0.000305176	
3.79059	-0.380554	0.000152588	
3.79028	-0.379028	0.000457764	
3.78845	-0.375671	0.000457764	
3.78601	-0.371094	0.000610352	
3.78448	-0.365906	0.00152588	
3.78571	-0.36438	0.000457764	
3.78265	-0.361328	-0.000305176	
3.78143	-0.35614	0.00137329	
3.78052	-0.351868	0.000457764	
3.78113	-0.349731	0.000915527	
3.78021	-0.345459	0.000305176	
3.77899	-0.341187	-0.000457764	
3.77563	-0.336914	0	
3.77502	-0.331726	0.000457764	
3.77563	-0.326843	0.000305176	
3.77319	-0.324707	0.000305176	
3.77136	-0.321045	0	
3.77075	-0.316772	0.0012207	
3.77106	-0.31189	0.000915527	
3.76831	-0.307312	0.000457764	
3.76678	-0.303345	0.000305176	
3.76648	-0.296631	0.000457764	
3.76617	-0.291748	0.000305176	
3.76343	-0.287781	0.000457764	
3.76129	-0.286255	-0.000152588	
3.76068	-0.282898	0.000152588	
3.76068	-0.278015	-0.000305176	
3.75854	-0.272827	0.000762939	
3.75641	-0.26886	0.000305176	
3.7558	-0.262451	0	
3.7558	-0.258789	0.000610352	
3.7561	-0.252991	0.000915527	
3.75336	-0.248718	0.000610352	
3.75183	-0.24353	0.000762939	
3.75122	-0.239258	0.000762939	
3.75153	-0.233154	0.000762939	
3.74908	-0.22583	0.000152588	
3.74695	-0.219727	0.000457764	
3.74634	-0.213623	-0.000152588	
3.74664	-0.209656	0.000305176	
3.74359	-0.204163	0.000457764	
3.74207	-0.199585	0.000457764	
3.74207	-0.194702	0.000457764	
3.74115	-0.189514	0.000305176	
3.73962	-0.184631	0.00152588	
3.73718	-0.177002	0.000610352	
3.73657	-0.170898	0	
3.73566	-0.164185	0.00137329	
3.73413	-0.159302	0.000457764	
3.7323	-0.155029	0.00106812	
3.73169	-0.150146	0.000152588	
3.73138	-0.142517	-0.000152588	
3.72986	-0.136414	0	
3.72681	-0.130005	0.000610352	
3.7265	-0.126038	0	
3.7265	-0.117798	0.000305176	
3.72437	-0.111389	-0.000610352	
3.72192	-0.106201	0.0012207	
3.72162	-0.101013	0.000762939	
3.72162	-0.0942993	0.000305176	
3.71918	-0.0869751	0.000457764	
3.71704	-0.0817871	0.000457764	
3.71674	-0.0762939	0.000457764	
3.71613	-0.0686646	0.000152588	
3.71368	-0.0622559	-0.000305176	
3.71216	-0.0570679	0.000152588	
3.71124	-0.0494385	-0.000305176	
3.71124	-0.0430298	0.000457764	
3.7088	-0.0378418	0.000457764	
3.70728	-0.0296021	0.000305176	
3.70697	-0.0234985	0.000762939	
3.70667	-0.0180054	0.00106812	
3.70422	-0.00946045	0.000610352	
3.7027	-0.00366211	0.000457764	
3.70178	0.00427246	0.000152588	
3.70178	0.0106812	0.000152588	
3.69965	0.0167847	0	
3.69751	0.0244141	0.000762939	
3.69659	0.0311279	0	
3.6969	0.0390625	0.000152588	
3.69476	0.0448608	0.000610352	
3.69202	0.0512695	0.000457764	
3.69232	0.0582886	0.000457764	
3.68988	0.065918	0.000610352	
3.68774	0.0732422	0.00152588	
3.68652	0.0802612	0.000610352	
3.68713	0.0875854	0	
3.68469	0.0939941	0.00152588	
3.68317	0.0991821	0.000457764	
3.68195	0.106812	0.000915527	
3.68195	0.113831	0	
3.6795	0.12207	-0.000152588	
3.67706	0.128174	-0.000152588	
3.67706	0.136414	0.000457764	
3.67706	0.142517	0.000305176	
3.67432	0.151672	0.000610352	
3.67279	0.157166	-0.000305176	
3.67249	0.166016	0.0012207	
3.67249	0.171814	0.000915527	
3.66943	0.18158	0.000610352	
3.66821	0.187378	0.000305176	
3.66791	0.195618	0.000457764	
3.66791	0.201721	0.000762939	
3.66455	0.209351	0.000305176	
3.66241	0.216675	-0.000152588	
3.66241	0.224609	0.000305176	
3.65997	0.231323	-0.000152588	
3.65814	0.238342	0.000762939	
3.65723	0.245972	0.000152588	
3.65753	0.253906	0.000305176	
3.65448	0.26062	0.000762939	
3.65234	0.268555	0.0012207	
3.65295	0.275574	0.000915527	
3.65295	0.283508	0.000305176	
3.65021	0.290222	0.000762939	
3.64807	0.298462	0.000152588	
3.64746	0.305176	0.000152588	
3.64746	0.312805	0.000762939	
3.64471	0.319214	0.000152588	
3.64319	0.327454	0.000305176	
3.64197	0.334778	0.000305176	
3.63983	0.342712	0.000457764	
3.63861	0.348816	0.000610352	
3.6377	0.357056	0.000915527	
3.63678	0.36377	0.0012207	
3.63464	0.371704	0.000762939	
3.63342	0.378418	0.000152588	
3.63281	0.386353	0.000610352	
3.6322	0.393066	0.000457764	
3.63037	0.401306	0.000457764	
3.62823	0.408325	0	
3.62762	0.415649	-0.000152588	
3.62823	0.422668	0.000305176	
3.62579	0.430908	0.000457764	
3.62366	0.437012	0.000152588	
3.62305	0.445251	0.000305176	
3.62091	0.451965	-0.000457764	
3.61908	0.460205	0.000915527	
3.61816	0.466003	0.000610352	
3.61755	0.475159	0.000305176	
3.61542	0.480347	0.000762939	
3.61389	0.489807	0.000305176	
3.61237	0.495911	0.000305176	
3.61237	0.500793	0.000305176	
3.61084	0.508118	-0.000152588	
3.6084	0.515747	0	
3.6084	0.523987	-0.000305176	
3.60565	0.530396	0.000915527	
3.60413	0.53833	0.000152588	
3.60352	0.544739	-0.000152588	
3.60229	0.549316	0.000457764	
3.60046	0.557861	0.00137329	
3.59863	0.56427	0.00106812	
3.59833	0.572815	0.000457764	
3.59741	0.579529	0.000305176	
3.59589	0.584412	0.000152588	
3.59406	0.592346	0.000152588	
3.59344	0.598755	0.000915527	
3.5907	0.606995	0.000305176	
3.58978	0.613708	0.000152588	
3.58795	0.618896	0.000457764	
3.58826	0.626526	0.000457764	
3.58612	0.632935	0.000762939	
3.58459	0.639038	0.000762939	
3.58337	0.646362	0.00137329	
3.58063	0.652466	0.000610352	
3.5788	0.657654	0.000305176	
3.5791	0.665894	0.0012207	
3.57849	0.672607	0.000457764	
3.57605	0.677795	0.000915527	
3.57422	0.68512	0.000152588	
3.5733	0.691528	-0.000152588	
3.57361	0.697327	-0.000152588	
3.57117	0.702209	0.000610352	
3.56934	0.710144	0	
3.56873	0.716248	0.000610352	
3.56659	0.721436	-0.000305176	
3.56445	0.726318	0.00106812	
3.56354	0.734863	0.000915527	
3.56323	0.740662	0.000610352	
3.5611	0.74646	0.000305176	
3.55927	0.751038	0.000762939	
3.55804	0.755615	0.000457764	
3.55835	0.764465	-0.000152588	
3.55621	0.770569	-0.000610352	
3.55438	0.775146	-0.000152588	
3.55377	0.780334	-0.000152588	
3.55103	0.785828	0.000915527	
3.5495	0.791016	0.000305176	
3.54889	0.798035	0.000305176	
3.54797	0.804443	0.000762939	
3.54645	0.809937	0.00137329	
3.54523	0.814819	0.0012207	
3.5437	0.819702	0.000457764	
3.54126	0.824585	0.000152588	
3.54004	0.830078	0.000610352	
3.53912	0.834045	0	
3.53943	0.839844	0.000762939	
3.53699	0.843811	0.000305176	
3.53516	0.849609	0.000305176	
3.53516	0.854187	0.000457764	
3.53119	0.859375	0.000915527	
3.52905	0.863953	0.000457764	
3.52936	0.869751	0.000610352	
3.52905	0.873413	0.00137329	
3.526	0.878906	0.000305176	
3.52417	0.882874	-0.000152588	
3.52417	0.889282	0.00106812	
3.52173	0.892944	0.000457764	
3.51929	0.898438	0.000762939	
3.51868	0.90332	0	
3.51898	0.908203	-0.000152588	
3.51776	0.913391	-0.000152588	
3.51501	0.918274	0.000305176	
3.5141	0.922852	0.000305176	
3.5141	0.92804	0.000762939	
3.51196	0.929871	-0.000305176	
3.50952	0.932617	0.00106812	
3.50922	0.937195	0.000457764	
3.50647	0.942078	0.000457764	
3.50494	0.94696	0.000152588	
3.50433	0.948792	0.000610352	
3.50464	0.951843	0.000152588	
3.50189	0.957336	0.000152588	
3.50006	0.961304	-0.000762939	
3.49915	0.967102	-0.000152588	
3.49731	0.968933	-0.000457764	
3.49518	0.972595	0.000915527	
3.49457	0.975952	0	
3.49457	0.978699	0	
3.49182	0.982361	0.000457764	
3.4903	0.986633	0.000915527	
3.48907	0.991516	0.000915527	
3.48694	0.993652	0.000610352	
3.48511	0.996094	0.000610352	
3.48419	0.998535	0.000457764	
3.4845	1.00159	-0.000152588	
3.48236	1.00616	0.000457764	
3.48022	1.00739	0.000305176	
3.47992	1.01135	0.000152588	
3.47687	1.01288	0.000457764	
3.47504	1.01624	0.000305176	
3.47473	1.02112	0.000610352	
3.47504	1.02295	0.000305176	
3.4726	1.026	0.00137329	
3.47015	1.02722	0.000915527	
3.46954	1.03119	0	
3.4671	1.03271	0.00137329	
3.46588	1.03546	0.000762939	
3.46497	1.03821	0.000915527	
3.46497	1.04095	0.000305176	
3.46283	1.04187	0	
3.46069	1.04584	0.000305176	
3.46008	1.04706	0.000305176	
3.45703	1.04706	0.000457764	
3.45551	1.05042	0.000457764	
3.45398	1.05225	0	
3.4552	1.0553	0.0012207	
3.45215	1.05743	0.000915527	
3.45062	1.05713	0.000457764	
3.4491	1.06018	0.000457764	
3.45001	1.0611	0.000457764	
3.44727	1.06201	0.000305176	
3.44513	1.06537	0.000610352	
3.44543	1.06659	-0.000305176	
3.44299	1.06689	0.000305176	
3.44025	1.06659	-0.000457764	
3.43994	1.06934	0.00106812	
3.44025	1.07117	0.000457764	
3.43842	1.07147	0.000305176	
3.43628	1.07178	0.000610352	
3.43536	1.07513	0.0012207	
3.43292	1.07635	0.00106812	
3.43079	1.07635	0.000457764	
3.43048	1.07697	0.000610352	
3.43109	1.07666	0.000457764	
3.42804	1.07941	-0.000152588	
3.42621	1.08124	0.000762939	
3.4256	1.08124	0.000152588	
3.42346	1.08185	0.000457764	
3.42163	1.08185	0.000457764	
3.4201	1.08154	0.000305176	
3.41949	1.08215	-0.000152588	
3.41858	1.08215	0.000457764	
3.41614	1.08215	0.0012207	
3.41492	1.08185	0.000457764	
3.41339	1.08215	0.000152588	
3.41095	1.08185	0.0012207	
3.41034	1.08215	0.000457764	
3.41064	1.08459	0.0012207	
3.40729	1.08307	0.000305176	
3.40607	1.08185	-0.000305176	
3.40546	1.08185	0	
3.40363	1.08154	0.000610352	
3.40149	1.08124	0.000457764	
3.40027	1.08124	0.000457764	
3.40057	1.08093	-0.000152588	
3.39783	1.08185	0.00137329	
3.39691	1.08185	0.000915527	
3.3963	1.08154	0.000152588	
3.39539	1.08063	0.000305176	
3.39325	1.08154	0.000610352	
3.39172	1.08154	0.000305176	
3.39142	1.0791	0.000152588	
3.38837	1.07727	-0.000305176	
3.38623	1.07697	0.000152588	
3.38593	1.07666	-0.000610352	
3.38623	1.07697	0.000915527	
3.3844	1.07666	0.000152588	
3.38135	1.07422	0	
3.38104	1.07208	0.000762939	
3.37891	1.07178	0.00152588	
3.37646	1.07208	0.000762939	
3.37616	1.06934	0.000915527	
3.37585	1.0672	0.000305176	
3.37341	1.06659	0.000762939	
3.37128	1.0672	-0.000305176	
3.37067	1.06415	0.000762939	
3.36853	1.06201	0.000152588	
3.367	1.06201	0.000305176	
3.36609	1.05927	0.000457764	
3.36639	1.05743	0.000457764	
3.36365	1.05682	0.000152588	
3.36182	1.05377	0.000610352	
3.3606	1.05194	0.0012207	
3.35815	1.05225	0.000762939	
3.35693	1.04889	0.000305176	
3.35632	1.04767	0.00106812	
3.35693	1.04492	0.000762939	
3.35419	1.04248	0.000762939	
3.35175	1.04279	0.000610352	
3.35205	1.03882	-0.000610352	
3.35083	1.03729	-0.000152588	
3.349	1.03394	0.000152588	
3.34717	1.03302	0.000457764	
3.34625	1.02936	0.000610352	
3.34442	1.02753	-0.000305176	
3.34167	1.02539	0.00137329	
3.34167	1.02203	0.000610352	
3.34167	1.0202	0.000610352	
3.33893	1.01837	0.000457764	
3.3374	1.01471	0.000762939	
3.3371	1.01318	0.000457764	
3.33405	1.00983	0.000610352	
3.33191	1.00891	-0.000457764	
3.3313	1.00525	0.000305176	
3.3316	1.00372	-0.000610352	
3.32855	1.00067	0.000915527	
3.32703	0.995483	0.000610352	
3.32642	0.993652	0.000305176	
3.32397	0.990906	0.000152588	
3.32306	0.988464	0.00167847	
3.32153	0.985413	0.000762939	
3.32153	0.980835	0.000610352	
3.31879	0.979309	0.000762939	
3.31757	0.975647	0.000457764	
3.31696	0.971375	-0.000152588	
3.31696	0.968933	0.000762939	
3.31451	0.965271	0.000305176	
3.31299	0.961304	0.000152588	
3.31177	0.959473	0.000152588	
3.30902	0.955505	0.000152588	
3.3078	0.951538	0.000457764	
3.30597	0.949707	0.000610352	
3.30688	0.946045	0.0012207	
3.30475	0.941162	0.000762939	
3.30292	0.939636	0	
3.30231	0.93689	0.0012207	
3.29956	0.931702	0.000610352	
3.29712	0.927124	0.000915527	
3.29712	0.925293	0.000457764	
3.29681	0.921326	-0.000305176	
3.29437	0.916443	-0.000152588	
3.29285	0.912476	0.000610352	
3.29254	0.910034	0.000305176	
3.28979	0.907593	0.000305176	
3.28766	0.90271	-0.000152588	
3.28644	0.898132	0.00106812	
3.28735	0.892944	0.000610352	
3.28522	0.890808	0.000762939	
3.28278	0.887146	0.000762939	
3.28247	0.882874	0.000762939	
3.28247	0.878906	0.000457764	
3.28033	0.873718	-0.000457764	
3.27789	0.870972	-0.000305176	
3.27759	0.868225	0.000457764	
3.27515	0.862732	-0.000305176	
3.27332	0.85907	0.000610352	
3.2724	0.853271	0.000457764	
3.27301	0.848694	0	
3.27026	0.843201	0.000457764	
3.26813	0.84198	0.00106812	
3.26752	0.838928	0.000610352	
3.26538	0.834045	0.000915527	
3.26324	0.828552	0.000762939	
3.26324	0.823975	0.000762939	
3.26233	0.818787	-0.000152588	
3.25989	0.814209	0.000762939	
3.25867	0.809021	0	
3.25775	0.807495	0.000305176	
3.25714	0.804138	0.000305176	
3.25531	0.79895	0.000457764	
3.25317	0.794067	0.000305176	
3.25317	0.789795	0.000915527	
3.25012	0.784607	0.0012207	
3.24921	0.780029	0.00106812	
3.24768	0.774536	-0.000152588	
3.24799	0.770874	0.0012207	
3.24554	0.765381	0.000762939	
3.24341	0.760193	0.000915527	
3.2431	0.755615	0.000305176	
3.24127	0.750427	0	
3.23792	0.748596	-0.000305176	
3.23822	0.744934	0.000305176	
3.23761	0.740967	0.000152588	
3.23578	0.736084	0.000610352	
3.23334	0.730591	-0.000457764	
3.23364	0.725708	0.00106812	
3.23303	0.72052	0.000762939	
3.2312	0.716248	0.000762939	
3.22906	0.71167	0.000152588	
3.22845	0.706787	0.000457764	
3.2254	0.701599	0.000305176	
3.22327	0.696411	0.000305176	
3.22296	0.690918	0.000152588	
3.22388	0.68634	0.000305176	
3.22113	0.681152	-0.000152588	
3.2196	0.67627	0.000762939	
3.21838	0.671997	0	
3.21594	0.666809	0.000152588	
3.21411	0.661926	0.000305176	
3.2135	0.656738	0.00167847	
3.21289	0.652466	0.00137329	
3.21014	0.646973	0.000610352	
3.20892	0.6427	0.00106812	
3.20831	0.637817	0.000915527	
3.20862	0.632629	-0.000152588	
3.20557	0.627747	0.000762939	
3.20404	0.622864	0.000457764	
3.20435	0.617981	0.000152588	
3.2016	0.613098	0.000457764	
3.19946	0.608521	0.000457764	
3.19824	0.603027	0	
3.19855	0.601807	0.000762939	
3.19641	0.597839	0.00137329	
3.19427	0.593262	0.000915527	
3.19397	0.588074	0.000152588	
3.19366	0.583191	0.0012207	
3.19061	0.578918	0.000305176	
3.18909	0.573425	0.000915527	
3.18817	0.568237	0.000457764	
3.18573	0.56427	-0.000152588	
3.1842	0.558777	-0.000610352	
3.18329	0.553589	0	
3.1839	0.549011	0.000305176	
3.18146	0.544434	0.000457764	
3.17932	0.539246	-0.000305176	
3.17932	0.534363	0.00137329	
3.17871	0.530396	0.000762939	
3.17627	0.524902	0.000457764	
3.17505	0.519409	0	
3.17352	0.515137	0.000457764	
3.17139	0.509949	0.000762939	
3.16986	0.504761	0.000305176	
3.16833	0.500183	0	
3.16895	0.494995	0.000457764	
3.16711	0.490723	-0.000457764	
3.16467	0.48584	0.000457764	
3.16315	0.480347	0.000305176	
3.16315	0.474854	0	
3.16162	0.470581	0.000305176	
3.1601	0.466614	0.0012207	
3.15918	0.461426	0.0012207	
3.15643	0.456848	0.000305176	
3.1546	0.45105	0.000762939	
3.1546	0.446167	0.000610352	
3.15399	0.444641	-0.000152588	
3.15186	0.440979	0.000610352	
3.14941	0.436096	0.000152588	
3.14911	0.431519	0.000152588	
3.1488	0.426941	0.000610352	
3.14636	0.421448	0.000610352	
3.14514	0.41687	0.000305176	
3.14362	0.412292	0.000762939	
3.14178	0.407104	0.000915527	
3.13995	0.402222	0.000610352	
3.13904	0.397034	0	
3.13965	0.392456	0.00137329	
3.13751	0.387878	0.000762939	
3.13477	0.382996	0.000762939	
3.13416	0.380859	0.000457764	
3.13446	0.377808	-0.000152588	
3.13141	0.372009	-0.000152588	
3.12988	0.367126	0.000610352	
3.12927	0.362549	0.000152588	
3.12653	0.357971	0.000457764	
3.12531	0.353088	-0.000305176	
3.12531	0.3479	0.00106812	
3.12439	0.343018	0.000457764	
3.12256	0.340881	0.000457764	
3.12012	0.33783	0.000305176	
3.12012	0.333252	0.000457764	
3.11951	0.328674	0.000762939	
3.11707	0.324097	0.000610352	
3.11523	0.317688	-0.000305176	
3.11432	0.314331	0	
3.11157	0.312195	-0.000305176	
3.11035	0.308838	0.000915527	
3.11035	0.305481	0.000305176	
3.11066	0.299988	-0.000152588	
3.1076	0.2948	0.000457764	
3.10547	0.289612	0.00106812	
3.10455	0.28717	0.0012207	
3.10272	0.284424	0.000457764	
3.10059	0.279541	0.000457764	
3.09998	0.274658	0.000457764	
3.09998	0.270386	0.000152588	
3.09753	0.265198	0.000762939	
3.09601	0.263062	0.000305176	
3.09509	0.259399	0.000457764	
3.09448	0.255432	0.000610352	
3.09265	0.249634	0.000305176	
3.0899	0.247498	0.000457764	
3.09021	0.245361	0.000762939	
3.08746	0.240479	0.000915527	
3.08594	0.235291	0	
3.08411	0.231018	0.00137329	
3.08594	0.225525	0.000457764	
3.08289	0.221252	0.000152588	
3.08044	0.21698	0.000762939	
3.07983	0.213623	0.000610352	
3.07953	0.210876	0	
3.07739	0.206299	-0.000457764	
3.07556	0.203552	0.000305176	
3.07526	0.201111	0.000305176	
3.07312	0.196533	-0.000152588	
3.07098	0.19104	0.00106812	
3.07007	0.188904	0.000915527	
3.07007	0.185852	0.000610352	
3.06763	0.18158	0.000457764	
3.06549	0.179443	0.000305176	
3.06488	0.176697	0.000305176	
3.06549	0.172119	0.000457764	
3.06335	0.169983	0	
3.06091	0.166321	-0.000152588	
3.0603	0.161438	-0.000305176	
3.05786	0.159912	0.000610352	
3.05573	0.15625	0	
3.05481	0.152283	0.000457764	
3.05573	0.150452	0	
3.05328	0.146484	0.000152588	
3.05054	0.142212	0.0012207	
3.05023	0.140991	0.00152588	
3.0484	0.137329	0.000762939	
3.04657	0.135498	0.000457764	
3.04565	0.132141	-0.000152588	
3.04504	0.127258	0.0012207	
3.04291	0.125122	0.000457764	
3.04108	0.122681	0.000305176	
3.04077	0.119934	0.000152588	
3.04016	0.117188	0.000305176	
3.03833	0.113525	0.000457764	
3.0368	0.111389	0.000305176	
3.03589	0.108032	0.000762939	
3.03406	0.106201	0.0012207	
3.03162	0.102844	0.000152588	
3.0307	0.101318	0.0012207	
3.03101	0.0982666	0.000915527	
3.02826	0.0967407	0.000610352	
3.02643	0.0930786	0.000762939	
3.02582	0.0915527	0.000457764	
3.02307	0.0881958	-0.000152588	
3.02124	0.0836182	-0.000305176	
3.02032	0.0814819	0.000305176	
3.02063	0.0790405	0.000457764	
3.0188	0.0772095	-0.000152588	
3.01636	0.0747681	0.00106812	
3.01605	0.0732422	0.000762939	
3.01575	0.0692749	0.000305176	
3.01331	0.0671387	0.000762939	
3.01147	0.0646973	0.000152588	
3.01086	0.0631714	0.000305176	
3.00842	0.0622559	0.000762939	
3.00659	0.0592041	-0.000152588	
3.00598	0.0579834	-0.000305176	
3.00537	0.0543213	-0.000457764	
3.00385	0.0527954	0.000457764	
3.0011	0.0497437	0	
3.0011	0.0476074	0.000305176	
2.99866	0.0448608	0.000305176	
2.99622	0.0436401	0	
2.99591	0.0421143	0.00137329	
2.99652	0.039978	0.00152588	
2.99377	0.0384521	0.000915527	
2.99255	0.0357056	0.000610352	
2.99133	0.0332642	0	
2.99133	0.0305176	0.00152588	
2.98889	0.0280762	0.000457764	
2.98676	0.0283813	0.000305176	
2.98615	0.0244141	0.000305176	
2.98309	0.0238037	0.000762939	
2.98157	0.0228882	0.000305176	
2.98096	0.0204468	0.000305176	
2.98157	0.0189209	0.000610352	
2.97882	0.0149536	0.00106812	
2.97668	0.0137329	-0.000152588	
2.97607	0.0125122	0.00137329	
2.97424	0.0100708	0.000762939	
2.97089	0.00854492	0.000610352	
2.97119	0.00793457	0.000915527	
2.97119	0.00488281	0.000762939	
2.96875	0.00366211	-0.000152588	
2.96692	0.00335693	-0.000305176	
2.966	0.000305176	0.000457764	
2.96692	-0.00152588	0.000152588	
2.96478	-0.0012207	-0.000305176	
2.96265	-0.00427246	0.000915527	
2.96143	-0.00518799	0.000610352	
2.95959	-0.00610352	0.000915527	
2.95685	-0.0088501	0.000305176	
2.95715	-0.0106812	0.000152588	
2.95654	-0.0106812	0.000457764	
2.95441	-0.0134277	0.000915527	
2.95227	-0.0158691	0.000152588	
2.95258	-0.0161743	-0.000305176	
2.94922	-0.0158691	-0.000305176	
2.94769	-0.0186157	0.000610352	
2.94647	-0.0201416	0.000457764	
2.94647	-0.0204468	0.000152588	
2.94464	-0.0234985	0	
2.9425	-0.0256348	0.000457764	
2.94281	-0.0256348	0.00137329	
2.93976	-0.0253296	0.00137329	
2.93762	-0.0286865	0.000762939	
2.93701	-0.0302124	0.000305176	
2.93701	-0.0305176	0	
2.93488	-0.0311279	0.000762939	
2.93243	-0.032959	0.000457764	
2.93243	-0.0354004	0.000152588	
2.93213	-0.0360107	0.000305176	
2.92938	-0.03479	0.000152588	
2.92725	-0.0357056	0	
2.92755	-0.0387573	0.000305176	
2.92511	-0.0396729	0.000610352	
2.92297	-0.0405884	0.000915527	
2.92236	-0.0415039	0.000152588	
2.92206	-0.043335	0.00152588	
2.91962	-0.045166	0.000915527	
2.9184	-0.045166	0.000610352	
2.91718	-0.0454712	0.00106812	
2.91382	-0.0454712	0.000457764	
2.9129	-0.0485229	-0.000457764	
2.91168	-0.0497437	-0.000457764	
2.9126	-0.0506592	0.000305176	
2.90985	-0.050354	0.000610352	
2.90771	-0.0506592	-0.000305176	
2.90741	-0.0527954	0.000915527	
2.90527	-0.0549316	0.000305176	
2.90314	-0.0558472	0.000762939	
2.90192	-0.0549316	0.000915527	
2.90253	-0.0552368	0.000305176	
2.9007	-0.0579834	0.000915527	
2.89825	-0.0598145	0.000610352	
2.89734	-0.06073	0.000305176	
2.89734	-0.0598145	-0.000457764	
2.89459	-0.06073	-0.000610352	
2.89307	-0.0604248	0.000610352	
2.89185	-0.0631714	0.000152588	
2.88971	-0.0646973	0.000305176	
2.88879	-0.0662231	0.000305176	
2.88727	-0.0653076	0.000305176	
2.88757	-0.0643921	0.000610352	
2.88544	-0.0653076	0.00167847	
2.8833	-0.0640869	0.000762939	
2.88208	-0.0680542	0.000457764	
2.88055	-0.0689697	0	
2.87842	-0.0701904	0.000915527	
2.87781	-0.0708008	0.000305176	
2.87811	-0.0701904	0.000305176	
2.87598	-0.0698853	0.000305176	
2.87354	-0.0704956	0.000305176	
2.87292	-0.072937	0.000305176	
2.87048	-0.0744629	0.000305176	
2.86835	-0.0753784	0.000762939	
2.86743	-0.0747681	0.000915527	
2.86774	-0.0759888	-0.000152588	
2.86591	-0.0747681	0.00137329	
2.86377	-0.0747681	0.000915527	
2.86255	-0.0775146	0.000915527	
2.86011	-0.0790405	0.000762939	
2.85828	-0.0799561	0.000762939	
2.85767	-0.0793457	-0.000305176	
2.85736	-0.0802612	-0.000457764	
2.85522	-0.0799561	0.000305176	
2.85339	-0.0793457	0.000457764	
2.85278	-0.0802612	-0.000457764	
2.85065	-0.0823975	0.000915527	
2.84851	-0.0845337	0.000305176	
2.84821	-0.085144	0.000457764	
2.84821	-0.0845337	0.000457764	
2.84546	-0.0842285	0.000305176	
2.84393	-0.0845337	0.000762939	
2.84363	-0.085144	0.000457764	
2.83997	-0.0845337	0.000152588	
2.83875	-0.0848389	-0.000152588	
2.83783	-0.0878906	-0.000305176	
2.83783	-0.088501	0.000915527	
2.836	-0.0897217	0.000305176	
2.83386	-0.0897217	0.000152588	
2.83325	-0.090332	-0.000152588	
2.83081	-0.0894165	0.000305176	
2.82837	-0.0894165	0.00106812	
2.82806	-0.0894165	0.00137329	
2.82593	-0.0894165	0.000610352	
2.82379	-0.0924683	0.000305176	
2.82318	-0.0946045	0.000152588	
2.82318	-0.0949097	0.0012207	
2.82043	-0.0949097	0.000152588	
2.8183	-0.0949097	0.000305176	
2.81799	-0.0946045	0.000305176	
2.81616	-0.0946045	0.000610352	
2.81372	-0.0946045	0.000610352	
2.81342	-0.0949097	0.000457764	
2.81311	-0.0973511	0.000457764	
2.81067	-0.0991821	0.00106812	
2.80914	-0.0991821	0	
2.80853	-0.0991821	0.0012207	
2.80579	-0.0991821	0.000762939	
2.80518	-0.0997925	0.000457764	
2.80396	-0.0997925	0.000610352	
2.80365	-0.0991821	0.000610352	
2.80121	-0.098877	-0.000152588	
2.79938	-0.102539	-0.000152588	
2.79877	-0.104065	0.000457764	
2.79633	-0.104065	0.000457764	
2.79388	-0.10437	-0.000152588	
2.79419	-0.10376	0.000762939	
2.79175	-0.10437	0.000610352	
2.78961	-0.10376	0.000610352	
2.78931	-0.104675	0.000610352	
2.78931	-0.104065	0.000152588	
2.78687	-0.107422	0.000457764	
2.78442	-0.108643	0.000457764	
2.78442	-0.108948	0.000152588	
2.78107	-0.109863	0	
2.77924	-0.108948	-0.000152588	
2.77893	-0.109558	0.000457764	
2.77893	-0.108643	0.000305176	
2.7771	-0.109863	0.000305176	
2.77527	-0.109253	-0.000152588	
2.77435	-0.112305	0.000152588	
2.7713	-0.114136	0.0012207	
2.76917	-0.113831	0.0012207	
2.76886	-0.114441	0.000457764	
2.76672	-0.113831	0.000457764	
2.76459	-0.114441	0.000152588	
2.76428	-0.114441	0.0012207	
2.76428	-0.113831	0.000457764	
2.76215	-0.117493	0.000305176	
2.76031	-0.118713	0.000152588	
2.75848	-0.119324	0.000610352	
2.75635	-0.119019	0.000305176	
2.75482	-0.119324	0.000305176	
2.75513	-0.119019	0.000762939	
2.75452	-0.118713	0.0012207	
2.75208	-0.119324	0.000152588	
2.74994	-0.121765	0.0012207	
2.74872	-0.123291	0.000762939	
2.74658	-0.123901	0.000457764	
2.74536	-0.123901	0.000610352	
2.74445	-0.123901	0.000762939	
2.742	-0.123901	-0.000305176	
2.74017	-0.123291	-0.000457764	
2.73956	-0.126648	0.000305176	
2.73926	-0.128479	0.000457764	
2.73682	-0.1297	0.000152588	
2.7356	-0.128784	0.000762939	
2.73468	-0.129395	0.000762939	
2.73254	-0.128479	0.000915527	
2.7301	-0.129395	0.000610352	
2.7298	-0.131531	0.000152588	
2.72736	-0.133972	0.000762939	
2.72583	-0.134583	0.000610352	
2.7243	-0.133972	0.000610352	
2.72491	-0.133362	-0.000152588	
2.72217	-0.134277	-0.000457764	
2.72034	-0.137024	0.000610352	
2.71973	-0.138855	0.000305176	
2.71759	-0.138855	0.000152588	
2.71515	-0.13855	0.000305176	
2.71484	-0.13855	0	
2.7124	-0.138855	0.00137329	
2.71057	-0.141602	0.00152588	
2.70935	-0.143738	0.000610352	
2.70996	-0.144043	0.000305176	
2.70721	-0.143738	0	
2.70569	-0.144043	0.00106812	
2.70538	-0.143433	0.000457764	
2.70264	-0.146484	0.000305176	
2.70081	-0.148621	0.000152588	
2.69989	-0.148621	0.000610352	
2.69775	-0.14801	0.000762939	
2.69623	-0.148315	0.000305176	
2.69531	-0.148315	0.000610352	
2.69409	-0.151367	0.000762939	
2.69196	-0.152893	0.000305176	
2.69043	-0.153503	0.00106812	
2.69043	-0.153503	0.000762939	
2.68799	-0.153198	0.000915527	
2.68494	-0.156555	0.000915527	
2.68494	-0.157776	0.000457764	
2.68494	-0.157776	-0.000305176	
2.6828	-0.158386	-0.000457764	
2.68127	-0.158081	0.000457764	
2.68005	-0.158691	0.000457764	
2.67792	-0.161133	-0.000152588	
2.67639	-0.162659	0.000762939	
2.67517	-0.163574	0.000610352	
2.67303	-0.162964	0.000915527	
2.6709	-0.163574	0.000762939	
2.67059	-0.16571	0.000152588	
2.66998	-0.167847	0.000457764	
2.66815	-0.167847	0.000610352	
2.66632	-0.168152	0.000152588	
2.66571	-0.168152	0.000305176	
2.66235	-0.170898	-0.000305176	
2.66113	-0.171814	0.000457764	
2.66052	-0.172729	0.000457764	
2.65808	-0.172729	0.000305176	
2.65625	-0.172729	0.000305176	
2.65533	-0.175781	0.000305176	
2.65533	-0.177307	0.00106812	
2.6532	-0.178223	0.00167847	
2.65137	-0.177002	0.000152588	
2.65076	-0.180359	0.000610352	
2.64801	-0.18219	0	
2.64709	-0.1828	0.00106812	
2.64557	-0.183411	0.000457764	
2.64587	-0.183105	0.000305176	
2.64374	-0.185547	0.000457764	
2.64191	-0.186768	0.000305176	
2.64099	-0.187378	0.000457764	
2.63916	-0.187988	0.000152588	
2.63672	-0.19043	0.000915527	
2.6358	-0.191956	0.00106812	
2.63367	-0.192566	0.000305176	
2.63123	-0.192871	0.00167847	
2.63184	-0.192261	0.000305176	
2.63062	-0.195618	0.000610352	
2.62939	-0.197449	0.000610352	
2.62634	-0.197449	0.000457764	
2.62573	-0.197449	-0.000305176	
2.6236	-0.2005	-0.000457764	
2.62146	-0.202026	0.000152588	
2.62115	-0.201721	0.000610352	
2.62115	-0.202637	-0.000152588	
2.61902	-0.205078	0.000915527	
2.61719	-0.207214	0.000152588	
2.61658	-0.207214	0.000762939	
2.61322	-0.207214	0.000915527	
2.61169	-0.210876	0.000305176	
2.61169	-0.211182	0.000457764	
2.61078	-0.212097	0.000610352	
2.60834	-0.211792	0	
2.60681	-0.212402	-0.000152588	
2.60681	-0.215149	-0.000762939	
2.60345	-0.216675	0.000915527	
2.60162	-0.216675	0	
2.60132	-0.217285	0.000152588	
2.60132	-0.219727	0.000152588	
2.59918	-0.221863	0.000457764	
2.59705	-0.221863	0.00106812	
2.59644	-0.222473	0.0012207	
2.59369	-0.224915	0.00106812	
2.59216	-0.226746	0.000457764	
2.59155	-0.227051	-0.000152588	
2.59125	-0.226746	0.00152588	
2.58881	-0.229797	0.000305176	
2.58759	-0.231628	0	
2.58667	-0.231628	0.000305176	
2.58453	-0.232239	0.000457764	
2.5824	-0.234985	0.000305176	
2.58179	-0.236206	0.000305176	
2.57904	-0.236816	0.000915527	
2.57751	-0.236816	0.000915527	
2.57721	-0.239258	0.000152588	
2.57721	-0.241089	0.0012207	
2.57507	-0.241699	0.000915527	
2.57202	-0.244141	0.000457764	
2.57202	-0.245667	0.000762939	
2.57172	-0.245972	0.000457764	
2.57019	-0.246887	0	
2.56805	-0.249329	-0.000305176	
2.56744	-0.250854	0.000305176	
2.565	-0.25177	0.000152588	
2.56287	-0.25177	-0.000305176	
2.56226	-0.254517	0.000762939	
2.56256	-0.255432	0.000152588	
2.56012	-0.256042	0.000915527	
2.55798	-0.256042	0.000610352	
2.55646	-0.259094	0	
2.55524	-0.26123	0.000610352	
2.55341	-0.26123	0.000610352	
2.55219	-0.26123	0.000152588	
2.55188	-0.263367	-0.000152588	
2.54974	-0.266113	-0.000610352	
2.54791	-0.266113	0.000457764	
2.54639	-0.268555	0.000152588	
2.54547	-0.270386	0	
2.54272	-0.270996	0.000152588	
2.54211	-0.270996	0.000305176	
2.54272	-0.273438	0.0012207	
2.54028	-0.275269	0.00106812	
2.53845	-0.275574	0.000457764	
2.53693	-0.275269	0.000762939	
2.5354	-0.278931	0	
2.53326	-0.280457	0.00106812	
2.53174	-0.281067	0.000457764	
2.53235	-0.283813	0.000152588	
2.52991	-0.285339	0	
2.52838	-0.28595	0.000457764	
2.52777	-0.28595	0.000152588	
2.52777	-0.288696	0.000152588	
2.52502	-0.290527	0.000457764	
2.5235	-0.290222	0.00106812	
2.52319	-0.291443	0.000305176	
2.52075	-0.293884	0.00106812	
2.51801	-0.29541	0.000457764	
2.5177	-0.29541	0.000762939	
2.5177	-0.298462	0.000457764	
2.51587	-0.299683	0.000457764	
2.51373	-0.299377	-0.000152588	
2.51282	-0.300293	-0.000152588	
2.51038	-0.302734	0.000457764	
2.50824	-0.305176	0.000457764	
2.50763	-0.305481	-0.000152588	
2.50793	-0.308228	0.000762939	
2.50549	-0.309753	0.000457764	
2.50366	-0.309753	0.000610352	
2.50305	-0.310669	0.000610352	
2.50244	-0.31311	-0.000152588	
2.50031	-0.314026	0.000305176	
2.49908	-0.314331	0.000610352	
2.49847	-0.314026	0.000152588	
2.49603	-0.317383	0.000152588	
2.4939	-0.319824	-0.000610352	
2.49298	-0.319519	0.000762939	
2.49329	-0.323181	0.000152588	
2.49146	-0.324707	0.000152588	
2.48962	-0.324402	0.000152588	
2.4884	-0.324707	0	
2.4881	-0.327759	0.000915527	
2.48657	-0.32959	0.00137329	
2.48413	-0.329895	0.000915527	
2.48383	-0.332947	0.000915527	
2.48383	-0.334167	-0.000152588	
2.48077	-0.334473	0.0012207	
2.47925	-0.334778	0.000610352	
2.47803	-0.337219	0.000305176	
2.4762	-0.33905	0.000305176	
2.47345	-0.339966	0.000305176	
2.47375	-0.339355	0.000152588	
2.47375	-0.342407	0.000305176	
2.47101	-0.344238	0.000610352	
2.46918	-0.344543	0.000915527	
2.46826	-0.3479	0.000305176	
2.46887	-0.349121	0.00106812	
2.46613	-0.349426	0.000915527	
2.46399	-0.349121	0.000762939	
2.46399	-0.352478	0.000610352	
2.46429	-0.354309	0.000305176	
2.46094	-0.354004	0.000152588	
2.45911	-0.354309	-0.000457764	
2.4585	-0.357361	0.000457764	
2.45605	-0.358582	0.000762939	
2.45392	-0.359802	0	
2.45361	-0.362549	0.000915527	
2.45331	-0.36377	0.000610352	
2.45148	-0.36377	0.000762939	
2.44965	-0.36377	0.000457764	
2.44904	-0.366821	0.000305176	
2.44873	-0.368652	0.000610352	
2.4472	-0.368652	0.000762939	
2.44446	-0.372314	0.000305176	
2.44415	-0.37323	0.000152588	
2.44446	-0.374146	-0.000762939	
2.44141	-0.374146	0.000762939	
2.43958	-0.377502	0.000305176	
2.43866	-0.378723	0.000152588	
2.43896	-0.378723	0.000305176	
2.43561	-0.378723	0.000152588	
2.43408	-0.38147	0.00106812	
2.43408	-0.383606	0.00106812	
2.43378	-0.383606	0.000610352	
2.43134	-0.383606	0.000305176	
2.4295	-0.385742	0	
2.42859	-0.388184	0.00106812	
2.4292	-0.388489	0.000915527	
2.42737	-0.391541	0	
2.42462	-0.392761	0.000305176	
2.42401	-0.393677	0.000610352	
2.42188	-0.393066	0.000152588	
2.41974	-0.396423	0.000305176	
2.41913	-0.397949	0.000762939	
2.41913	-0.39856	0.000762939	
2.41699	-0.39917	0.000152588	
2.41486	-0.401306	0.00152588	
2.41364	-0.403137	0.000457764	
2.41425	-0.403442	0.000762939	
2.4115	-0.403748	0.000305176	
2.41058	-0.405884	0.000762939	
2.40906	-0.407715	-0.000152588	
2.40875	-0.407715	-0.000305176	
2.40723	-0.40802	-0.000152588	
2.40479	-0.410767	0.000457764	
2.40387	-0.412903	-0.000457764	
2.40387	-0.412903	0.000762939	
2.40234	-0.415649	0	
2.40021	-0.417786	0.000915527	
2.40021	-0.417786	0.000762939	
2.39929	-0.417786	0.000152588	
2.39746	-0.421143	0.000610352	
2.39502	-0.422058	0.000457764	
2.3941	-0.422974	0.000305176	
2.39471	-0.423279	0	
2.39227	-0.426025	-0.000305176	
2.39014	-0.427856	0.000457764	
2.38983	-0.428162	0.000152588	
2.38953	-0.428772	0.000305176	
2.38708	-0.430908	0.000457764	
2.38525	-0.432129	0.000305176	
2.38434	-0.433044	0.000915527	
2.38495	-0.433044	0.00152588	
2.38312	-0.435486	0.000610352	
2.37976	-0.437927	0.000610352	
2.37946	-0.437927	0.000152588	
2.37976	-0.437622	0.0012207	
2.37732	-0.441284	0.000762939	
2.37518	-0.4422	0.000305176	
2.37579	-0.44342	0	
2.37488	-0.443115	0.000305176	
2.37213	-0.441895	0.000305176	
2.37091	-0.445557	0.000457764	
2.37	-0.447083	0.000762939	
2.36938	-0.447693	0.000762939	
2.3703	-0.447388	0.000305176	
2.36755	-0.450134	0.0012207	
2.36542	-0.451965	0.000457764	
2.36511	-0.452271	0.000915527	
2.36511	-0.451965	0.000610352	
2.36237	-0.455933	0.000610352	
2.36053	-0.456238	0	
2.35992	-0.457458	0	
2.35962	-0.457153	0.000305176	
2.35687	-0.457764	0.000610352	
2.35565	-0.46051	-0.000457764	
2.35535	-0.462341	0.0012207	
2.35504	-0.462646	0.000152588	
2.35291	-0.462646	0.000762939	
2.35107	-0.464172	0.000457764	
2.35016	-0.466614	0.000305176	
2.35016	-0.467224	0.000762939	
2.34741	-0.467529	0.000457764	
2.34528	-0.466919	0.000305176	
2.34558	-0.469971	0	
2.34528	-0.471497	-0.000610352	
2.34253	-0.472107	0.000610352	
2.3407	-0.471802	0.000305176	
2.34009	-0.475159	0.000152588	
2.34009	-0.476685	0.000457764	
2.33826	-0.476685	0	
2.33643	-0.476074	0.000762939	
2.33551	-0.476685	0.00198364	
2.33521	-0.479736	0.000610352	
2.33276	-0.481567	0.000305176	
2.33093	-0.481262	-0.000152588	
2.33093	-0.481262	0.00106812	
2.33093	-0.481873	0.000457764	
2.33032	-0.484314	0	
2.32819	-0.48645	0	
2.32635	-0.487061	0.000610352	
2.32605	-0.48645	0.000152588	
2.32544	-0.48645	0.000152588	
2.32269	-0.489807	0.000457764	
2.32117	-0.491028	0.000762939	
2.32117	-0.490723	0.000305176	
2.32086	-0.491028	0.0012207	
2.31842	-0.491638	0.000762939	
2.31659	-0.49469	0.000915527	
2.31567	-0.495911	0.000457764	
2.31476	-0.496216	0.000762939	
2.31323	-0.495911	-0.000152588	
2.31171	-0.495911	-0.000152588	
2.31079	-0.498962	0.000305176	
2.31049	-0.500793	0.000762939	
2.31049	-0.502014	-0.000457764	
2.30835	-0.501404	0.000915527	
2.30621	-0.500793	0.000305176	
2.30591	-0.50415	0.000915527	
2.30591	-0.505981	0.000915527	
2.30347	-0.506287	0.000305176	
2.30103	-0.505676	0.000610352	
2.30072	-0.505676	0.000610352	
2.30011	-0.505676	0.000457764	
2.29858	-0.509644	-0.000152588	
2.29645	-0.511475	-0.000762939	
2.29553	-0.510864	0.000457764	
2.29584	-0.510864	0.000305176	
2.2934	-0.510864	0	
2.29126	-0.511475	0.000457764	
2.29034	-0.513306	0.000305176	
2.29126	-0.516052	0.00106812	
2.29126	-0.515137	0.0012207	
2.28851	-0.515747	0.000610352	
2.28668	-0.516357	0.000305176	
2.28546	-0.519104	-0.000152588	
2.28638	-0.520935	0.00106812	
2.28363	-0.52063	0.000762939	
2.2818	-0.52124	-0.000152588	
2.28149	-0.52063	0	
2.28119	-0.520935	0.000305176	
2.27875	-0.52124	0.000457764	
2.276	-0.523376	0.000457764	
2.27661	-0.525818	0	
2.276	-0.526123	0.000610352	
2.27661	-0.526733	0.000152588	
2.27448	-0.526123	0.00152588	
2.27173	-0.525818	0.000610352	
2.27142	-0.528564	0.000915527	
2.27112	-0.530396	0.000457764	
2.26868	-0.530701	0.000610352	
2.26685	-0.53009	0.000152588	
2.26624	-0.531006	0	
2.26654	-0.530701	0.000457764	
2.26624	-0.534058	0.000610352	
2.26379	-0.535278	-0.000457764	
2.26227	-0.535889	0.0012207	
2.26135	-0.535583	0.000305176	
2.26166	-0.535889	0.000762939	
2.25922	-0.535583	0.000457764	
2.25677	-0.535583	0.000305176	
2.25616	-0.53894	0.000457764	
2.25647	-0.540466	0.000610352	
2.25647	-0.540466	0.000305176	
2.25372	-0.540771	0.000457764	
2.2522	-0.540466	-0.000915527	
2.25128	-0.540771	0.000305176	
2.25128	-0.540771	0.000152588	
2.24945	-0.543823	0.000152588	
2.2464	-0.545044	0.000152588	
2.24701	-0.545349	0.000457764	
2.24609	-0.545044	0.000915527	
2.24609	-0.545959	0.00137329	
2.24426	-0.545654	0.000610352	
2.24243	-0.545044	0.000457764	
2.2406	-0.545044	0	
2.24182	-0.548096	0.000915527	
2.23907	-0.550842	0.000762939	
2.23755	-0.550232	0.000305176	
2.23663	-0.549622	0.000305176	
2.23663	-0.549927	0.000305176	
2.23663	-0.550537	0.000457764	
2.2348	-0.550842	0	
2.23236	-0.550232	0.000610352	
2.23175	-0.553284	0.000762939	
2.23145	-0.55542	0.000152588	
2.22931	-0.55542	0.0012207	
2.22717	-0.555115	0.000610352	
2.22595	-0.55481	0.000915527	
2.22656	-0.55542	0.000457764	
2.22717	-0.555115	0.000610352	
2.22412	-0.55542	0.000152588	
2.2226	-0.558777	-0.000305176	
2.2226	-0.559692	0	
2.22168	-0.559998	0.000457764	
2.21924	-0.559998	-0.000152588	
2.21771	-0.559998	0.000915527	
2.21649	-0.560608	0.000457764	
2.2168	-0.559998	0.000762939	
2.21741	-0.560303	0.000762939	
2.21436	-0.559998	0	
2.21222	-0.563354	0.000610352	
2.21222	-0.564575	0.000762939	
2.21222	-0.565186	0.000457764	
2.21191	-0.565491	0.000152588	
2.20947	-0.56488	-0.000915527	
2.20703	-0.565186	0.000457764	
2.20764	-0.565491	0.000305176	
2.20703	-0.56488	0.000152588	
2.2049	-0.565186	0.000610352	
2.20276	-0.567627	0.000305176	
2.20184	-0.569763	0.00106812	
2.20184	-0.569458	0.00137329	
2.20215	-0.570068	0.000610352	
2.1994	-0.569763	0.000762939	
2.19818	-0.569763	0	
2.19696	-0.569763	0.00137329	
2.19666	-0.570068	0.000762939	
2.19757	-0.570068	0.000152588	
2.19513	-0.570679	0	
2.19238	-0.570068	0.000457764	
2.19147	-0.57251	0.000305176	
2.19147	-0.575256	0.000457764	
2.18933	-0.574036	0.000457764	
2.18781	-0.574951	0.000457764	
2.1875	-0.575256	0.000305176	
2.18719	-0.574951	0.000915527	
2.18781	-0.574951	0.000762939	
2.18506	-0.574951	0.00106812	
2.18292	-0.574646	0.000305176	
2.18262	-0.575256	0.000305176	
2.18231	-0.575256	0	
2.18262	-0.574341	-0.000762939	
2.17987	-0.578613	0.000457764	
2.17834	-0.579224	0.000305176	
2.17712	-0.580139	-0.000305176	
2.17743	-0.579529	0.000762939	
2.1756	-0.579529	0.000152588	
2.17285	-0.580139	0.000457764	
2.17255	-0.579529	0.000762939	
2.17285	-0.579834	0.000305176	
2.17163	-0.579834	0.000457764	
2.1701	-0.579224	0.000915527	
2.16827	-0.579529	0.000152588	
2.16736	-0.580139	0.000457764	
2.16736	-0.579834	-0.000915527	
2.16705	-0.579834	0.000610352	
2.16492	-0.582886	0	
2.16309	-0.584412	-0.000305176	
2.16309	-0.585022	0.000915527	
2.16278	-0.585327	0.000152588	
2.16278	-0.584717	0.000915527	
2.16064	-0.584412	0.0012207	
2.1582	-0.584717	0.000610352	
2.15851	-0.584717	0.000762939	
2.15759	-0.585022	-0.000152588	
2.15546	-0.585022	0.000915527	
2.15332	-0.585022	0.000610352	
2.1524	-0.585022	0	
2.15363	-0.585022	0.000152588	
2.15271	-0.585022	0.000152588	
2.15027	-0.585022	0.000152588	
2.14874	-0.584717	0.000152588	
2.14813	-0.584412	0.000457764	
2.14752	-0.587769	0.000610352	
2.14783	-0.588684	0.000457764	
2.14508	-0.589905	0.00137329	
2.14264	-0.59021	0.000762939	
2.14294	-0.5896	0.000915527	
2.14233	-0.5896	0.000457764	
2.1405	-0.589905	0.000762939	
2.13867	-0.589905	-0.000152588	
2.13776	-0.5896	-0.000305176	
2.13806	-0.5896	-0.000152588	
2.13745	-0.589905	0.000457764	
2.13531	-0.589905	-0.000457764	
2.13318	-0.5896	0.000915527	
2.13379	-0.589905	0.000610352	
2.13257	-0.589905	0.000610352	
2.13318	-0.5896	0.000762939	
2.13074	-0.5896	0.000305176	
2.12952	-0.5896	0.000457764	
2.12769	-0.5896	0.000457764	
2.12769	-0.59021	0.000305176	
2.12524	-0.589905	0	
2.12372	-0.59021	-0.00106812	
2.12341	-0.589905	0.000610352	
2.12341	-0.5896	0.000152588	
2.1225	-0.589905	0.000305176	
2.12036	-0.5896	0.000305176	
2.11792	-0.5896	0.000152588	
2.11792	-0.589905	0.000915527	
2.11823	-0.592346	0.00137329	
2.11823	-0.594482	0.000915527	
2.11548	-0.594482	0.000610352	
2.11365	-0.594177	0	
2.11304	-0.594788	0.0012207	
2.11273	-0.594482	0.000305176	
2.11121	-0.595093	0	
2.10938	-0.594482	0.000152588	
2.10846	-0.594482	0.000305176	
2.10938	-0.594788	0.000152588	
2.10846	-0.594177	0.000610352	
2.10663	-0.595093	0.000610352	
2.10388	-0.594788	0.000610352	
2.10358	-0.594482	0.000457764	
2.10297	-0.594788	0.00137329	
2.10083	-0.594482	0.000457764	
2.099	-0.591736	0.000762939	
2.09808	-0.589905	0.000610352	
2.09869	-0.5896	0.000762939	
2.09808	-0.589905	0	
2.09656	-0.5896	-0.000457764	
2.09381	-0.5896	0.000305176	
2.09351	-0.589294	0.000305176	
2.0929	-0.589905	-0.000305176	
2.09137	-0.589294	0.0012207	
2.08862	-0.5896	0.000152588	
2.08893	-0.5896	0.000762939	
2.08893	-0.589905	0.000762939	
2.08771	-0.589905	0	
2.08679	-0.589294	0.000152588	
2.08374	-0.5896	0.000610352	
2.08374	-0.589905	0.000152588	
2.08374	-0.5896	0.000610352	
2.08313	-0.589294	-0.000762939	
2.0816	-0.589294	0.000610352	
2.07916	-0.589905	0.000457764	
2.07855	-0.588989	-0.000152588	
2.07825	-0.586548	0.000457764	
2.07642	-0.584717	0	
2.07397	-0.585022	0.00106812	
2.07367	-0.585022	0.0012207	
2.07428	-0.584717	0.00106812	
2.07367	-0.585632	0.000457764	
2.07123	-0.585022	0	
2.0697	-0.585022	0.000915527	
2.06909	-0.584717	0.000457764	
2.06848	-0.584717	0.000305176	
2.06635	-0.58197	0.000457764	
2.06421	-0.580139	0.000152588	
2.06421	-0.580139	0.000305176	
2.06329	-0.579529	0.000610352	
2.0636	-0.580444	0.000610352	
2.06177	-0.579834	0.000610352	
2.05933	-0.580139	0.000457764	
2.05872	-0.576782	0.00106812	
2.05872	-0.575562	0.000915527	
2.05658	-0.574341	0.000762939	
2.05444	-0.574951	0.000457764	
2.05383	-0.575256	0.000915527	
2.05383	-0.57251	0.000152588	
2.05353	-0.570374	-0.000457764	
2.0517	-0.570068	0	
2.04895	-0.570068	0.000305176	
2.04895	-0.569763	-0.000610352	
2.04895	-0.567322	0.000915527	
2.04681	-0.565796	0.000152588	
2.04468	-0.56488	0.000762939	
2.04407	-0.565186	0.000915527	
2.04437	-0.562134	0.000152588	
2.04193	-0.560303	0.000457764	
2.03918	-0.559692	0.000610352	
2.03949	-0.560303	0.000457764	
2.03949	-0.557556	-0.000152588	
2.03888	-0.556335	-0.000915527	
2.03674	-0.55542	0.000457764	
2.03522	-0.552368	0.000457764	
2.0343	-0.550842	0.000457764	
2.0343	-0.550232	0.000305176	
2.03186	-0.550232	0.000305176	
2.02972	-0.54657	0.000762939	
2.02942	-0.545959	0.0012207	
2.02942	-0.545654	0.000457764	
2.02942	-0.542603	0.000152588	
2.02759	-0.540771	0	
2.02576	-0.537109	0.000915527	
2.02515	-0.536194	0.000762939	
2.02423	-0.535583	-0.000152588	
2.02362	-0.532532	0.000457764	
2.01996	-0.531311	0.000305176	
2.01965	-0.528259	0.000610352	
2.01904	-0.526123	0.000152588	
2.01996	-0.525513	0.000457764	
2.01782	-0.523071	0.000610352	
2.01508	-0.52124	0.000610352	
2.01477	-0.517883	0.00167847	
2.01447	-0.516357	0.000457764	
2.01202	-0.513611	0.000457764	
2.01019	-0.511169	0.000915527	
2.00958	-0.508728	0.000457764	
2.00958	-0.506287	0	
2.00989	-0.50354	-0.000152588	
2.00714	-0.501709	0.000152588	
2.00562	-0.498352	0.000610352	
2.0047	-0.496216	-0.000305176	
2.00439	-0.493469	0.00152588	
2.00256	-0.491638	0.000305176	
2.00043	-0.487671	0.000762939	
1.99982	-0.483704	0.000610352	
1.99982	-0.481567	0.000610352	
2.00012	-0.47821	0.000762939	
1.99677	-0.47699	0.000457764	
1.99554	-0.473328	0.000610352	
1.99493	-0.46936	0.000305176	
1.99402	-0.467529	-0.000762939	
1.9928	-0.464478	0.000152588	
1.99097	-0.460205	0.000457764	
1.98975	-0.457764	0.000305176	
1.98944	-0.453796	0.000305176	
1.99005	-0.449829	0.000305176	
1.98792	-0.447388	0.000610352	
1.98578	-0.443726	0.0012207	
1.98456	-0.440063	0.00106812	
1.98425	-0.435486	0.000305176	
1.98242	-0.432739	0	
1.9812	-0.429382	0.00106812	
1.97968	-0.4245	0.000610352	
1.98029	-0.419922	0.000457764	
1.97815	-0.415039	0.000305176	
1.9751	-0.413208	0.000305176	
1.9754	-0.409851	0.000457764	
1.97571	-0.404968	0.000610352	
1.9751	-0.400696	0.000305176	
1.97296	-0.395508	0.000457764	
1.97052	-0.390625	0.000457764	
1.97052	-0.388184	0.00137329	
1.9696	-0.385437	0.000457764	
1.96777	-0.380859	0.000610352	
1.96594	-0.376282	0.000457764	
1.96533	-0.370789	0.000610352	
1.96442	-0.365601	0.000152588	
1.96533	-0.361328	-0.000152588	
1.96259	-0.35614	-0.000152588	
1.96075	-0.351868	0.000610352	
1.96014	-0.346375	0	
1.95984	-0.341492	0.00106812	
1.95862	-0.337524	0.000152588	
1.95618	-0.331116	0.000915527	
1.95618	-0.327148	0.000915527	
1.95557	-0.321655	0.000457764	
1.95557	-0.316772	0.000305176	
1.95313	-0.3125	0.000152588	
1.95099	-0.307922	0.000305176	
1.95068	-0.302429	0	
1.95068	-0.296936	-0.000762939	
1.94794	-0.292969	0.000762939	
1.94641	-0.284729	0.000457764	
1.9455	-0.27832	0.000305176	
1.9455	-0.272827	0.000305176	
1.9455	-0.267334	0	
1.94336	-0.263062	0.000762939	
1.94153	-0.257874	0.00152588	
1.94061	-0.253601	0.000915527	
1.94061	-0.246277	0.000305176	
1.93787	-0.238647	0.000152588	
1.93604	-0.23407	0.000915527	
1.93604	-0.228882	0.000457764	
1.93573	-0.221558	0.000152588	
1.93573	-0.214844	0	
1.93359	-0.209351	0.000152588	
1.93176	-0.203552	0.000762939	
1.93024	-0.196228	0.000457764	
1.93024	-0.190125	0.000152588	
1.9281	-0.184937	0.000610352	
1.92627	-0.179443	0.000762939	
1.92596	-0.172119	0.0012207	
1.92627	-0.165405	0.000610352	
1.92596	-0.159912	0.000762939	
1.92322	-0.152283	0.000305176	
1.922	-0.146484	0.000915527	
1.92078	-0.141296	0	
1.92078	-0.132751	-0.000457764	
1.91864	-0.126648	0	
1.9162	-0.118408	0.000457764	
1.91589	-0.111694	-0.000305176	
1.9165	-0.106201	0.00106812	
1.91589	-0.0982666	0.000457764	
1.91315	-0.0915527	0.000915527	
1.91162	-0.0836182	0.000457764	
1.91101	-0.0772095	0.000457764	
1.91162	-0.0695801	0.000610352	
1.90857	-0.0619507	0.000457764	
1.90643	-0.0570679	0.000610352	
1.90643	-0.0494385	0.000305176	
1.90582	-0.0427246	-0.000915527	
1.90613	-0.03479	0.00106812	
1.90399	-0.0286865	0.000305176	
1.90247	-0.0201416	0.000305176	
1.90125	-0.0128174	0.000457764	
1.90125	-0.00549316	0.000152588	
1.90094	0.000610352	0.000610352	
1.8988	0.00946045	0.00152588	
1.89728	0.0164795	0.000762939	
1.89606	0.0244141	0	
1.89606	0.0332642	0	
1.89392	0.0405884	0.000762939	
1.89209	0.0482178	0.000610352	
1.89117	0.0549316	-0.000152588	
1.89056	0.0634766	0.000610352	
1.89148	0.0698853	0.000305176	
1.88873	0.0784302	0	
1.8869	0.0869751	0.000305176	
1.88568	0.0939941	0.000762939	
1.8869	0.101624	0.000610352	
1.88416	0.108337	0.000915527	
1.88141	0.116272	0.00106812	
1.8811	0.125732	0.000305176	
1.8811	0.133362	0.000762939	
1.88141	0.141602	0.000305176	
1.87836	0.148315	0.000457764	
1.87744	0.155945	0.000152588	
1.87653	0.1651	-0.000152588	
1.87622	0.172424	0	
1.87592	0.180359	0.000457764	
1.87439	0.188904	-0.000457764	
1.87256	0.196228	0.000915527	
1.87256	0.205383	0.000610352	
1.87164	0.211487	0.000915527	
1.86951	0.220032	0.000762939	
1.86676	0.228882	0.000305176	
1.86676	0.235901	0.000457764	
1.86646	0.243835	0.000610352	
1.86676	0.252991	0.000457764	
1.86462	0.26062	0.000457764	
1.86279	0.26947	-0.000915527	
1.86157	0.27832	0.000305176	
1.86157	0.284729	0.000152588	
1.86127	0.292969	0.000152588	
1.86005	0.303345	0.000305176	
1.8576	0.309448	0	
1.85699	0.318298	0.000457764	
1.85699	0.327454	0.000915527	
1.8573	0.334473	0.000457764	
1.85455	0.341492	0.000457764	
1.85211	0.351563	0	
1.85211	0.358582	0.00106812	
1.8515	0.367432	0.000610352	
1.84937	0.375366	0.000305176	
1.84723	0.383606	0.000152588	
1.84662	0.391541	0.000762939	
1.84692	0.400391	0.000305176	
1.84662	0.407104	0.000457764	
1.84479	0.415955	0.000762939	
1.84296	0.42572	0.000915527	
1.84265	0.432434	0.000762939	
1.84113	0.440369	0.0012207	
1.84204	0.449829	0.000610352	
1.8399	0.457153	0.000457764	
1.83777	0.465088	0.000305176	
1.83716	0.473938	0.000610352	
1.83624	0.481567	0.000305176	
1.83746	0.489502	-0.000152588	
1.83441	0.498962	-0.000152588	
1.83289	0.505066	0.000305176	
1.83197	0.513306	-0.000457764	
1.83167	0.523682	0.00106812	
1.83258	0.53009	0.000305176	
1.82983	0.538635	0.000457764	
1.8277	0.545044	0.000762939	
1.82739	0.552673	0.000762939	
1.82709	0.562439	0.000305176	
1.82678	0.569153	0.000762939	
1.82404	0.578003	0.000457764	
1.82281	0.583801	0.000152588	
1.8222	0.592346	-0.000762939	
1.82251	0.602112	0.000762939	
1.8222	0.608521	0.000457764	
1.82037	0.617371	0.000152588	
1.81793	0.622864	0.000915527	
1.81702	0.631104	0	
1.81732	0.637817	0.000762939	
1.81763	0.646057	0.0012207	
1.81488	0.655212	0.0012207	
1.81244	0.662537	0.000457764	
1.81213	0.670471	-0.000305176	
1.81183	0.677185	0.000915527	
1.81183	0.684814	0.000457764	
1.80969	0.691528	0.000152588	
1.80878	0.699158	0.000305176	
1.80695	0.705872	0.000152588	
1.80725	0.714722	0.000762939	
1.80695	0.72113	0.000152588	
1.80481	0.729675	0.000457764	
1.80328	0.736084	0.000762939	
1.80237	0.744019	0.000610352	
1.80176	0.750732	0.00137329	
1.80267	0.758972	0.000610352	
1.79993	0.765991	0.000152588	
1.79779	0.770874	0.000457764	
1.79779	0.778809	0.000762939	
1.7981	0.785522	0.000610352	
1.79779	0.793457	-0.000305176	
1.79535	0.799561	-0.000152588	
1.79321	0.804443	0.000305176	
1.79169	0.812073	-0.000152588	
1.7926	0.819092	0.000610352	
1.79321	0.827637	0.000305176	
1.79199	0.834045	0.000762939	
1.79047	0.840149	0.000762939	
1.78802	0.847168	0.000305176	
1.78802	0.853271	0.000610352	
1.78741	0.85907	0.000305176	
1.78802	0.867004	0.000457764	
1.78528	0.873108	0.000457764	
1.78314	0.877991	-0.000762939	
1.78253	0.886536	0.000915527	
1.78284	0.89325	0	
1.78223	0.897522	0.000305176	
1.77979	0.90332	0.000457764	
1.77795	0.91095	0	
1.77856	0.918274	0.000610352	
1.77795	0.922852	0.00152588	
1.77795	0.92804	0.00106812	
1.77826	0.933228	0.000915527	
1.77521	0.939941	0.000305176	
1.77338	0.947266	0.00106812	
1.77246	0.951843	0.00106812	
1.77338	0.957336	0.000457764	
1.77277	0.961609	0.000305176	
1.77032	0.967102	0.000457764	
1.7691	0.974731	0.000457764	
1.76758	0.981445	0.000152588	
1.76819	0.986328	0.000305176	
1.76788	0.991821	0.000610352	
1.76819	0.996704	0.000762939	
1.76575	1.00067	0.00152588	
1.76331	1.00647	0.00106812	
1.763	1.01135	0.000762939	
1.76331	1.01593	0.000457764	
1.763	1.02112	0.000915527	
1.76331	1.0257	0.000305176	
1.76056	1.03027	-0.000305176	
1.75812	1.03546	0.000152588	
1.75751	1.03973	0.000610352	
1.75781	1.04523	-0.000152588	
1.75751	1.05011	0.00106812	
1.75629	1.05499	0.000305176	
1.75385	1.06018	0.000457764	
1.75293	1.06537	0.000610352	
1.75323	1.07025	0.000915527	
1.75323	1.07391	0.000305176	
1.75323	1.07941	0.000457764	
1.75049	1.08124	0.000305176	
1.74866	1.08429	0.000457764	
1.74805	1.08978	-0.000762939	
1.74835	1.09467	0.00106812	
1.74774	1.09924	0.000457764	
1.74805	1.10413	0.000152588	
1.74591	1.10565	0.000152588	
1.74347	1.10901	0.000152588	
1.74347	1.11389	0.000610352	
1.74286	1.11877	0.000762939	
1.74316	1.12396	0.000762939	
1.74286	1.12549	0.000610352	
1.74072	1.12885	-0.000305176	
1.73859	1.13312	0.00106812	
1.73828	1.13525	0.000457764	
1.73737	1.13892	0	
1.73798	1.14288	0.000457764	
1.73889	1.14471	0.000457764	
1.73615	1.14838	0.000610352	
1.73401	1.15265	0.000305176	
1.73401	1.15448	0.000457764	
1.73279	1.15753	0.000610352	
1.73279	1.16211	0.000915527	
1.7334	1.16486	0.00106812	
1.73065	1.16821	0.000762939	
1.72882	1.17065	0.000457764	
1.72821	1.1731	0.000457764	
1.72791	1.17432	0.000762939	
1.72791	1.17737	0.000305176	
1.72882	1.17981	-0.000305176	
1.72577	1.18317	-0.000152588	
1.72424	1.18408	0.000305176	
1.72272	1.18774	-0.000305176	
1.72302	1.18958	0.0012207	
1.72363	1.19263	0.000457764	
1.72333	1.19446	0.000915527	
1.72424	1.1969	0.000915527	
1.72089	1.19904	0.000610352	
1.71967	1.19965	0.000610352	
1.71844	1.20239	0.000305176	
1.71844	1.20361	0.000305176	
1.71844	1.20758	0.000152588	
1.71875	1.2085	-0.00106812	
1.71692	1.20941	0.000457764	
1.71417	1.21185	0.000152588	
1.71417	1.21307	0.000152588	
1.71417	1.21399	0.000457764	
1.71356	1.21429	0	
1.71387	1.21704	0.000457764	
1.71417	1.21918	0.000915527	
1.71143	1.21918	0.000457764	
1.70959	1.21887	0.000610352	
1.70898	1.22192	-0.000305176	
1.70868	1.22406	0.00106812	
1.70868	1.22437	0.000305176	
1.70898	1.22406	0.000152588	
1.70624	1.22406	0.000152588	
1.70441	1.2265	0.000305176	
1.70471	1.22864	0.000610352	
1.7041	1.22833	0.000457764	
1.7038	1.22894	0.000610352	
1.7041	1.22864	0.000762939	
1.7041	1.22894	0.000762939	
1.70105	1.22864	0.00137329	
1.70013	1.22864	0.000610352	
1.69922	1.22894	0.000915527	
1.69952	1.22894	0.000457764	
1.69922	1.2323	0.000610352	
1.69891	1.23291	0.000152588	
1.69861	1.23383	-0.000305176	
1.69647	1.2326	0.000152588	
1.69464	1.23352	0.000457764	
1.69403	1.23383	-0.000457764	
1.69434	1.23322	0.000762939	
1.69434	1.23047	0.000457764	
1.69373	1.22894	0.000762939	
1.69342	1.22955	0.000915527	
1.6925	1.22925	0.000610352	
1.68945	1.22894	0	
1.68945	1.22864	0.000610352	
1.68884	1.22894	0.000457764	
1.68854	1.22894	0.000152588	
1.68854	1.22894	-0.00106812	
1.68701	1.22894	0.000762939	
1.68488	1.22589	0	
1.68488	1.22375	0.000457764	
1.68427	1.22406	0.000305176	
1.68457	1.22375	0.000305176	
1.68457	1.22375	0.000457764	
1.68396	1.22375	0.000915527	
1.68457	1.22101	0.00106812	
1.68182	1.21887	0.000152588	
1.67969	1.21796	0	
1.67908	1.21887	0.00106812	
1.67877	1.21674	0.000610352	
1.67877	1.21429	0.000457764	
1.67908	1.21399	0.000152588	
1.67908	1.21155	0.000305176	
1.67664	1.20972	0.000457764	
1.6748	1.2085	0.000457764	
1.67419	1.20636	0.000610352	
1.67419	1.20483	0.000610352	
1.67419	1.20453	0.000457764	
1.67419	1.20148	0.00152588	
1.67358	1.19904	0.000457764	
1.67175	1.19904	0.000762939	
1.67023	1.19659	0.000915527	
1.66931	1.19415	0.000762939	
1.66901	1.19171	0.000457764	
1.66901	1.19019	-0.000305176	
1.66962	1.18958	0	
1.6687	1.18652	0.000457764	
1.66687	1.1853	-0.000457764	
1.66443	1.18225	0.0012207	
1.66504	1.18011	0.000152588	
1.66382	1.17737	0.000610352	
1.66412	1.17523	0.000305176	
1.66412	1.17218	0.000152588	
1.66412	1.17035	0.000305176	
1.66412	1.16669	0.000457764	
1.6626	1.16608	0.000457764	
1.65894	1.16211	0.000457764	
1.65894	1.15997	-0.0012207	
1.65985	1.15753	0.000762939	
1.66016	1.15509	0.000305176	
1.66016	1.15234	0.000152588	
1.65924	1.14807	0	
1.65924	1.14563	0	
1.6571	1.14197	0.000610352	
1.65558	1.14044	0.00137329	
1.65436	1.13708	0.000915527	
1.65375	1.13281	0.000457764	
1.65436	1.13098	0.000152588	
1.65405	1.12701	0.000915527	
1.65405	1.1261	0.000762939	
1.65222	1.12305	0.000152588	
1.65039	1.11847	0.000305176	
1.64948	1.11664	0.000152588	
1.64917	1.11298	0.000152588	
1.64917	1.10779	0.000610352	
1.64948	1.10657	0.000762939	
1.64978	1.1026	0.000915527	
1.64917	1.09863	0.000762939	
1.64673	1.09406	0.0012207	
1.64551	1.09222	0.000457764	
1.64459	1.08826	0.000610352	
1.64429	1.08429	0.000610352	
1.64459	1.07971	0.000457764	
1.64459	1.07727	0.000457764	
1.6449	1.0733	-0.000305176	
1.64429	1.06964	-0.000305176	
1.64398	1.06384	0.000457764	
1.64246	1.06201	-0.000305176	
1.64032	1.05927	0.000915527	
1.6394	1.05469	0.000305176	
1.63879	1.05011	0.000610352	
1.63971	1.04462	0.000610352	
1.64001	1.04309	0.000457764	
1.63971	1.03973	0.000305176	
1.63971	1.03455	0.000305176	
1.63757	1.03027	0.000762939	
1.63605	1.02448	-0.000152588	
1.63483	1.0199	-0.00106812	
1.63422	1.01807	0.000457764	
1.63483	1.01471	0.000762939	
1.63422	1.01044	0.000152588	
1.63422	1.00525	0.000152588	
1.63452	1.00037	0.000152588	
1.63208	0.996094	0.000457764	
1.63147	0.990601	0.00137329	
1.62933	0.988464	0.00167847	
1.62964	0.985107	0.000762939	
1.63025	0.981445	-0.000152588	
1.62964	0.976563	0.00106812	
1.63025	0.970764	0.00106812	
1.62964	0.966187	0.000152588	
1.62964	0.961304	0.000152588	
1.62781	0.956116	0.000152588	
1.62506	0.951233	0.000457764	
1.62537	0.94696	0.000305176	
1.62476	0.941772	0	
1.62506	0.936584	0.000610352	
1.62445	0.935059	0.000457764	
1.62476	0.931702	0.00152588	
1.62476	0.927124	0.000610352	
1.62445	0.922241	0.000915527	
1.62231	0.917053	0.000457764	
1.62018	0.911865	0.000457764	
1.61957	0.907593	0.000457764	
1.62018	0.9021	-0.000152588	
1.61987	0.897217	-0.000305176	
1.61987	0.892639	0.000305176	
1.61957	0.887146	-0.000457764	
1.62048	0.883789	0.00106812	
1.61987	0.877991	0.000457764	
1.61957	0.872803	0.000762939	
1.61774	0.868225	0.000762939	
1.6156	0.862732	0.000457764	
1.61499	0.858459	0.000610352	
1.61438	0.853882	0.000457764	
1.61469	0.848389	0.000915527	
1.61438	0.843506	0.000152588	
1.61469	0.838623	-0.0012207	
1.6153	0.83374	0.000762939	
1.61469	0.828857	0.000152588	
1.61316	0.823669	0	
1.61072	0.819397	0.000152588	
1.6098	0.814209	0	
1.6098	0.809631	0.000305176	
1.6098	0.804749	0.0012207	
1.61041	0.799255	0.00106812	
1.61041	0.794067	0.000610352	
1.60919	0.789795	0	
1.60919	0.784302	0.0012207	
1.6098	0.780029	0.000457764	
1.6098	0.774231	0.000305176	
1.60736	0.770264	0.000305176	
1.60553	0.766296	0.000305176	
1.60553	0.760498	0.000762939	
1.60461	0.755615	0.000457764	
1.60522	0.750122	0.000305176	
1.60431	0.74585	0.000610352	
1.60461	0.741272	0.000457764	
1.60431	0.736084	0.0012207	
1.60492	0.730591	0.000610352	
1.60492	0.726013	0.000457764	
1.60278	0.721436	0.000457764	
1.60065	0.713196	0.000610352	
1.60004	0.707397	0.000457764	
1.60004	0.700989	0	
1.59912	0.696411	-0.000152588	
1.60034	0.691833	0.000305176	
1.60004	0.68634	-0.000152588	
1.60034	0.681458	0.000762939	
1.59973	0.67627	0.000305176	
1.60004	0.671997	0.000762939	
1.60034	0.667114	0.000762939	
1.60034	0.661926	0.000915527	
1.59821	0.657043	0.000305176	
1.59546	0.651855	0.000305176	
1.59515	0.647583	0.000457764	
1.59485	0.6427	0.000152588	
1.59515	0.637207	-0.000915527	
1.59485	0.632629	0.000610352	
1.59515	0.627441	0.000305176	
1.59546	0.623169	0.000305176	
1.59515	0.618286	0.000305176	
1.59515	0.613403	0.000457764	
1.59485	0.608521	0.000152588	
1.59546	0.603027	0.0012207	
1.59271	0.598145	0.00106812	
1.59088	0.593262	0.000457764	
1.59027	0.588684	0	
1.59027	0.583801	0.000915527	
1.58997	0.579224	0.000305176	
1.59058	0.573425	0.000305176	
1.58997	0.568542	0.000152588	
1.58997	0.563354	0	
1.58997	0.559082	0.000457764	
1.58966	0.553894	0.000152588	
1.58997	0.548706	0.000305176	
1.59058	0.544739	0.000610352	
1.58783	0.53894	0.000457764	
1.58539	0.534668	0.00106812	
1.58478	0.529785	0.000915527	
1.58508	0.525513	0.000610352	
1.58508	0.52002	0.000305176	
1.58478	0.515137	0.000762939	
1.58508	0.510864	0.000762939	
1.58539	0.504761	-0.000152588	
1.58569	0.500183	-0.000152588	
1.58539	0.495605	0.000152588	
1.58539	0.490723	-0.000152588	
1.58508	0.485535	0.000762939	
1.58569	0.480042	0.000610352	
1.58508	0.475769	0.000457764	
1.58325	0.471191	0.000610352	
1.58051	0.466919	0.000610352	
1.5799	0.461426	0.000305176	
1.5799	0.456848	0.000762939	
1.5799	0.45105	0.000610352	
1.58051	0.446167	0	
1.5802	0.441284	-0.000915527	
1.5802	0.436707	0.000610352	
1.58051	0.431213	0.000152588	
1.58051	0.426636	0.000152588	
1.5799	0.421753	0.000457764	
1.58051	0.420837	-0.000305176	
1.5802	0.416565	0.000305176	
1.58051	0.412292	0.0012207	
1.5799	0.40741	0.00167847	
1.58051	0.402527	0.000610352	
1.57837	0.397034	-0.000152588	
1.57593	0.392456	0.00106812	
1.57532	0.387573	0.000762939	
1.57562	0.382385	0.000152588	
1.57501	0.377502	0.000305176	
1.57593	0.372925	0.000305176	
1.57593	0.371704	0.000457764	
1.57593	0.368042	0.000152588	
1.57532	0.363464	0.000152588	
1.57562	0.358276	0.000762939	
1.57501	0.353088	0.000457764	
1.57562	0.348206	0.00137329	
1.57532	0.343628	0.000762939	
1.57593	0.341797	0.000762939	
1.57562	0.338135	0.000762939	
1.57593	0.333557	0.00106812	
1.57593	0.32959	0.000762939	
1.57288	0.324097	-0.000305176	
1.57074	0.319214	0	
1.57104	0.314026	-0.000152588	
1.57013	0.312195	-0.000152588	
1.57013	0.309448	0.000915527	
1.56982	0.304871	0.000305176	
1.57013	0.299377	0.000457764	
1.57074	0.29541	0.000915527	
1.57013	0.292969	0.000610352	
1.57104	0.289307	0.000152588	
1.57104	0.285645	0.000762939	
1.57043	0.279846	0.000152588	
1.57043	0.274658	0	
1.57074	0.273438	-0.00106812	
1.57074	0.26947	0.000762939	
1.57074	0.265198	0	
1.57043	0.26001	0.000305176	
1.57013	0.258179	0.000610352	
1.56982	0.255127	0.000305176	
1.57013	0.249939	0	
1.5683	0.245056	0.00137329	
1.56616	0.24353	0.0012207	
1.56616	0.239868	0.000610352	
1.56525	0.235901	-0.000305176	
1.56494	0.231018	0.00137329	
1.56525	0.228882	0	
1.56464	0.225525	0.000152588	
1.56616	0.221252	0.000305176	
1.56525	0.219116	0.000152588	
1.56616	0.215759	0.000762939	
1.56555	0.211487	0.000305176	
1.56494	0.209045	0.000305176	
1.56586	0.206299	0.000915527	
1.56525	0.201416	0.000610352	
1.56525	0.198975	0.0012207	
1.56555	0.195923	0.000457764	
1.56525	0.191345	0.000915527	
1.56555	0.189819	0.000915527	
1.56494	0.185852	0.000915527	
1.56586	0.18158	0.000915527	
1.56525	0.179443	-0.000152588	
1.56555	0.176392	-0.000457764	
1.56555	0.171814	0.000457764	
1.56342	0.170288	0	
1.56189	0.166626	0.000610352	
1.56067	0.161743	0.000305176	
1.56036	0.159912	0.000610352	
1.56097	0.157471	0.00106812	
1.56067	0.155334	0.000305176	
1.56128	0.151978	0.000305176	
1.56067	0.1474	0.000610352	
1.56097	0.145874	0.000457764	
1.56097	0.142212	0.000152588	
1.56128	0.140686	-0.000762939	
1.56067	0.137634	0.000762939	
1.56067	0.134888	0.000152588	
1.56067	0.132751	0	
1.56067	0.127869	0.000457764	
1.56067	0.125427	0.000152588	
1.56067	0.12207	0	
1.56067	0.121155	0.00152588	
1.56067	0.118408	0.00137329	
1.56067	0.115662	0.000457764	
1.56067	0.112305	-0.000152588	
1.56097	0.111084	0.00152588	
1.56067	0.107422	0.000610352	
1.56128	0.106812	0.000152588	
1.56097	0.102844	0.000152588	
1.56097	0.101624	0	
1.56128	0.0979614	0.000305176	
1.56067	0.0961304	0.000152588	
1.56067	0.0933838	0.000610352	
1.55823	0.0909424	0.000610352	
1.5567	0.0881958	0.000457764	
1.55579	0.0866699	0.0012207	
1.55518	0.0839233	0.000457764	
1.55548	0.0817871	0.000762939	
1.55548	0.0793457	0.000457764	
1.5564	0.0769043	0.000762939	
1.55579	0.0744629	0.000915527	
1.55609	0.0723267	0	
1.55548	0.0723267	-0.000457764	
1.55579	0.0689697	0.000305176	
1.55579	0.067749	-0.000152588	
1.55548	0.0643921	0.000610352	
1.55548	0.0622559	0.000305176	
1.55579	0.0598145	0.000305176	
1.55579	0.0582886	0.000762939	
1.55609	0.0567627	0.000152588	
1.55579	0.0543213	0.000305176	
1.55609	0.0524902	0.00106812	
1.55579	0.0506592	0.000152588	
1.55579	0.0473022	0.000152588	
1.55579	0.0469971	-0.000915527	
1.5564	0.045166	0.000915527	
1.55579	0.0430298	0.000305176	
1.55548	0.0402832	0.000305176	
1.55548	0.0378418	0.000152588	
1.55548	0.0378418	0.000152588	
1.55548	0.0341797	0.000457764	
1.55579	0.0332642	0.00152588	
1.55579	0.0326538	0.00152588	
1.55609	0.0302124	0.000915527	
1.55609	0.027771	-0.000152588	
1.55548	0.027771	0.00137329	
1.55579	0.0247192	0.000762939	
1.55579	0.0234985	0.000152588	
1.55548	0.020752	0.000152588	
1.55579	0.0189209	0.000305176	
1.5567	0.0180054	0.000457764	
1.55609	0.0183105	0.000457764	
1.55579	0.015564	0.000152588	
1.55579	0.0131226	0.000305176	
1.55579	0.0134277	0.000305176	
1.5564	0.010376	0.0012207	
1.5564	0.0088501	0.000610352	
1.5564	0.00854492	0.000915527	
1.55579	0.00518799	0.000457764	
1.55548	0.00366211	0.000915527	
1.55548	0.00335693	0.000762939	
1.55396	0.000610352	-0.000305176	
1.55121	-0.000915527	-0.000152588	
1.55029	-0.000915527	-0.000305176	
1.5506	-0.000610352	-0.000152588	
1.5509	-0.00335693	0.000915527	
1.55121	-0.00640869	0.000305176	
1.55151	-0.00640869	0.000457764	
1.5509	-0.00946045	0.000457764	
1.55029	-0.0106812	0.000762939	
1.5509	-0.0112915	0.000457764	
1.5509	-0.0106812	0.000152588	
1.55151	-0.0140381	0.000610352	
1.5509	-0.0152588	-0.000152588	
1.5509	-0.015564	-0.000457764	
1.55151	-0.0161743	0.000915527	
1.55121	-0.0186157	0.000305176	
1.55121	-0.020752	0	
1.55121	-0.0213623	0.000305176	
1.5509	-0.0204468	-0.000152588	
1.5509	-0.0234985	0.000305176	
1.55121	-0.0256348	0.00137329	
1.55121	-0.0253296	0.00152588	
1.5509	-0.0253296	0.000457764	
1.55029	-0.0289917	-0.000305176	
1.55121	-0.0305176	0.00106812	
1.55121	-0.0308228	0.000762939	
1.55121	-0.0308228	0.000152588	
1.5509	-0.0314331	0.000457764	
1.5509	-0.0341797	0.000457764	
1.55121	-0.0350952	0.000762939	
1.5509	-0.0357056	0.000305176	
1.55029	-0.0357056	0.000152588	
1.5509	-0.0387573	0.000610352	
1.55121	-0.0402832	0.000305176	
1.54999	-0.0402832	0.0012207	
1.55121	-0.0405884	0.000457764	
1.5509	-0.0405884	0.000610352	
1.55121	-0.043335	0.000915527	
1.55029	-0.0448608	0.000762939	
1.55121	-0.0448608	0.000457764	
1.54999	-0.0454712	-0.000762939	
1.5506	-0.0454712	0	
1.55212	-0.0485229	0.000305176	
1.5506	-0.0500488	-0.000152588	
1.5506	-0.0506592	0.0012207	
1.55121	-0.0500488	0.000152588	
1.5509	-0.0500488	0.000610352	
1.5509	-0.0531006	0.000762939	
1.5506	-0.0546265	0.000457764	
1.55121	-0.055542	0	
1.5506	-0.055542	0.000305176	
1.5509	-0.055542	0.000762939	
1.55121	-0.0549316	0.000305176	
1.5506	-0.0576782	-0.000762939	
1.5509	-0.0598145	0.000457764	
1.5509	-0.0598145	0.000305176	
1.55121	-0.0613403	0.000305176	
1.55121	-0.0601196	0.000305176	
1.55121	-0.0628662	0.000305176	
1.55121	-0.0656128	0.000457764	
1.55029	-0.0650024	0.00137329	
1.5506	-0.0653076	0.00106812	
1.55121	-0.0653076	0.000915527	
1.5509	-0.0653076	-0.000152588	
1.5509	-0.0683594	0.00106812	
1.5509	-0.0698853	0.000762939	
1.55121	-0.0698853	0.000457764	
1.55121	-0.0701904	0.000152588	
1.5506	-0.0704956	0.000305176	
1.55121	-0.0732422	0.000305176	
1.5509	-0.0747681	0.000152588	
1.55151	-0.0753784	0.000152588	
1.5506	-0.0747681	0.000457764	
1.55029	-0.0747681	0.000305176	
1.5509	-0.0753784	0.00137329	
1.55121	-0.0775146	0.000915527	
1.5506	-0.0787354	0.000762939	
1.55121	-0.0793457	0.000610352	
1.5509	-0.0802612	0.000762939	
1.55334	-0.0796509	0.000610352	
1.55518	-0.0793457	-0.000152588	
1.55609	-0.0827026	-0.000152588	
1.55579	-0.0842285	0.000457764	
1.55579	-0.085144	0.000152588	
1.55579	-0.0842285	0.000915527	
1.5564	-0.0842285	0	
1.55579	-0.0845337	0.000610352	
1.55579	-0.0875854	0.000610352	
1.55579	-0.0894165	0.000457764	
1.55579	-0.090332	0.000457764	
1.55609	-0.0894165	0.000762939	
1.55579	-0.0894165	0.000610352	
1.55579	-0.0894165	0	
1.55609	-0.0927734	-0.000610352	
1.55548	-0.0942993	0.000762939	
1.55609	-0.0946045	0.000457764	
1.55609	-0.0949097	0.000152588	
1.55579	-0.0946045	0.000152588	
1.5564	-0.0949097	0	
1.55609	-0.0970459	0.000457764	
1.5564	-0.0994873	0.000915527	
1.55579	-0.0994873	0.00137329	
1.55609	-0.0991821	0.000762939	
1.55579	-0.0994873	-0.000152588	
1.55579	-0.100098	0.000915527	
1.5564	-0.102234	0.000915527	
1.55579	-0.10376	0.000457764	
1.55579	-0.10437	0.000152588	
1.55609	-0.10437	0.000305176	
1.55579	-0.10437	0.000457764	
1.55609	-0.10437	0.000610352	
1.55518	-0.107117	0.000305176	
1.55548	-0.108948	0.000762939	
1.55609	-0.109863	0.000305176	
1.55609	-0.109558	0.00152588	
1.55609	-0.108643	0.000610352	
1.55609	-0.112305	0.000610352	
1.55548	-0.112915	0.000915527	
1.55548	-0.114746	0.000762939	
1.55518	-0.114136	0.000762939	
1.55579	-0.113831	-0.000152588	
1.55609	-0.114136	-0.000457764	
1.55548	-0.116577	0.000457764	
1.55548	-0.118713	-0.000152588	
1.55579	-0.118408	0.000610352	
1.55548	-0.119324	0.000305176	
1.55548	-0.118713	0.000610352	
1.55609	-0.12146	0.000457764	
1.55518	-0.123901	0.000457764	
1.55609	-0.123596	0.000305176	
1.55548	-0.124207	0.000152588	
1.55792	-0.124512	0.000915527	
1.55975	-0.123901	0	
1.56036	-0.127563	-0.000610352	
1.56158	-0.129089	0.000762939	
1.56067	-0.128784	0.000457764	
1.56097	-0.128784	0.000152588	
1.56067	-0.128784	0.000305176	
1.56097	-0.131836	0	
1.56036	-0.133667	0.000457764	
1.56097	-0.134277	0.000915527	
1.56128	-0.133362	0.00137329	
1.56097	-0.133667	0.000610352	
1.56067	-0.137024	-0.000152588	
1.56097	-0.137939	0.00152588	
1.56006	-0.137634	0.00106812	
1.56036	-0.13855	0.000457764	
1.56036	-0.142517	0.000305176	
1.56067	-0.143127	0.000305176	
1.56067	-0.143433	0.000457764	
1.56067	-0.144348	0.000152588	
1.56067	-0.144043	0	
1.56036	-0.146484	0.000762939	
1.56097	-0.148315	0.000305176	
1.56097	-0.148621	0.00152588	
1.56036	-0.148926	0.000152588	
1.56097	-0.14801	0.000457764	
1.56097	-0.151978	0.000915527	
1.56097	-0.152588	0.000457764	
1.56097	-0.152893	0.000610352	
1.56097	-0.153198	0	
1.56097	-0.15564	-0.000610352	
1.56097	-0.158081	0.000457764	
1.56097	-0.157776	-0.000152588	
1.56097	-0.157776	0.000762939	
1.56342	-0.158081	0.000305176	
1.56555	-0.160828	0.000305176	
1.56494	-0.162354	0.000762939	
1.56586	-0.162659	0.000762939	
1.56555	-0.162964	0.000305176	
1.56647	-0.165405	0.000610352	
1.56494	-0.167236	0.000457764	
1.56616	-0.167847	0.000457764	
1.56464	-0.168152	-0.000457764	
1.56586	-0.170898	0.000915527	
1.56555	-0.172729	0.000305176	
1.56555	-0.17334	0.000305176	
1.56525	-0.172729	0.000305176	
1.56494	-0.176392	0.000305176	
1.56494	-0.177002	0.000152588	
1.56586	-0.177307	0.00106812	
1.56525	-0.177612	0.00137329	
1.56494	-0.180054	0.000610352	
1.56525	-0.18219	-0.000305176	
1.56586	-0.18219	0.0012207	
1.56586	-0.1828	0.000762939	
1.56555	-0.185547	0.000915527	
1.56555	-0.186768	0.000305176	
1.56525	-0.187683	0.000305176	
1.56525	-0.187378	0.000457764	
1.56525	-0.191345	0.000457764	
1.56769	-0.192566	0.000305176	
1.56982	-0.192566	0.000762939	
1.57074	-0.193176	0	
1.57043	-0.195007	0.0012207	
1.57074	-0.196838	0.00106812	
1.57013	-0.197449	0.000915527	
1.57013	-0.200195	0.000762939	
1.57013	-0.202332	0.000457764	
1.57074	-0.202026	0.000762939	
1.57013	-0.202637	0	
1.57074	-0.205994	-0.000305176	
1.57013	-0.206909	0	
1.57013	-0.20752	0	
1.57043	-0.206604	0.00106812	
1.56982	-0.210571	0.000305176	
1.57043	-0.212097	0.000762939	
1.57074	-0.211792	0.0012207	
1.57074	-0.214539	0.000610352	
1.56982	-0.21637	0.000305176	
1.57043	-0.216675	0.000457764	
1.57074	-0.219727	0.000762939	
1.57043	-0.221863	0	
1.57013	-0.222473	-0.000457764	
1.57318	-0.222168	0.000762939	
1.57501	-0.225525	0.000457764	
1.57532	-0.226746	0.000152588	
1.57562	-0.227051	0.000152588	
1.57501	-0.229492	0.000457764	
1.57562	-0.231628	0.000305176	
1.57532	-0.231934	0.0012207	
1.57562	-0.231323	0.00137329	
1.57532	-0.23468	0.000762939	
1.57562	-0.236511	-0.000152588	
1.57532	-0.236511	0.00106812	
1.57562	-0.239563	0.000762939	
1.57562	-0.241089	0.000305176	
1.57562	-0.241089	0.000152588	
1.57562	-0.245361	0.000305176	
1.57501	-0.245972	0.000762939	
1.57562	-0.246277	0	
1.57501	-0.249329	0.000152588	
1.57562	-0.250549	0.000762939	
1.57471	-0.251465	0.000305176	
1.57745	-0.253906	0.00137329	
1.57959	-0.256042	0.000915527	
1.58051	-0.256042	0.000762939	
1.5802	-0.256348	0.000762939	
1.57959	-0.258484	0.0012207	
1.5799	-0.261536	0.000305176	
1.5799	-0.260925	0	
1.5802	-0.264282	-0.000305176	
1.58051	-0.265503	0.000305176	
1.58051	-0.266724	0	
1.5802	-0.269165	0.000915527	
1.58112	-0.271301	0.000762939	
1.57928	-0.271301	0.000610352	
1.5799	-0.273743	0.000915527	
1.58051	-0.276184	0.000762939	
1.58051	-0.275269	0.000305176	
1.5802	-0.278625	0.000610352	
1.58203	-0.280457	0.000610352	
1.58417	-0.281677	0.000152588	
1.58539	-0.283508	-0.000762939	
1.58478	-0.285645	0.000915527	
1.58508	-0.285645	0.000457764	
1.586	-0.289612	0.000305176	
1.58508	-0.290222	0	
1.58478	-0.290222	0.000610352	
1.58539	-0.292358	0.000610352	
1.58569	-0.2948	0.000915527	
1.58478	-0.295105	0.000915527	
1.58539	-0.298157	0.000762939	
1.58478	-0.299683	-0.000457764	
1.58508	-0.300598	0.00137329	
1.58539	-0.303345	0.000610352	
1.58508	-0.305786	0.000457764	
1.58539	-0.308228	0	
1.58752	-0.309753	0.000305176	
1.58997	-0.310364	0.000610352	
1.59027	-0.31311	0.000152588	
1.59058	-0.314636	0.000457764	
1.58966	-0.314636	0.000610352	
1.58936	-0.317993	0.000152588	
1.59027	-0.319519	0.0012207	
1.58966	-0.319824	0.000610352	
1.58966	-0.323181	0.000610352	
1.58966	-0.324402	0.000915527	
1.59088	-0.325012	0.000762939	
1.58936	-0.327148	0.000457764	
1.59027	-0.329285	-0.000305176	
1.59027	-0.329895	-0.000152588	
1.59027	-0.332947	0.000152588	
1.59149	-0.334167	0.000305176	
1.59485	-0.334778	0.000762939	
1.59576	-0.337219	0.000152588	
1.59485	-0.33905	0.000457764	
1.59546	-0.341797	0.000610352	
1.59454	-0.343323	0.00106812	
1.59515	-0.344238	0.000152588	
1.59485	-0.347595	0.00106812	
1.59515	-0.348511	0.000457764	
1.59485	-0.349731	0.000305176	
1.59485	-0.352173	-0.000915527	
1.59576	-0.354004	0.000762939	
1.59546	-0.354309	0	
1.59515	-0.35675	0.000457764	
1.59729	-0.358887	0.000305176	
1.59912	-0.359802	0.000457764	
1.60004	-0.362244	0.000305176	
1.60004	-0.363464	0.00137329	
1.60065	-0.36377	0.00106812	
1.60034	-0.367126	0.000457764	
1.60004	-0.368958	-0.000152588	
1.59943	-0.371704	0.00137329	
1.59973	-0.373535	0.000762939	
1.60034	-0.37384	0.000152588	
1.60065	-0.376587	0.000152588	
1.59943	-0.379028	0.000152588	
1.59973	-0.378723	0.000610352	
1.60248	-0.38208	0.000457764	
1.604	-0.383301	0.000152588	
1.60522	-0.384216	0.000457764	
1.60461	-0.387268	0.000152588	
1.60461	-0.387878	0.00152588	
1.60461	-0.388489	0.000762939	
1.60522	-0.39093	0.000457764	
1.60461	-0.392761	0.00106812	
1.60492	-0.396118	0.000457764	
1.60583	-0.39856	0.000152588	
1.60492	-0.39856	0	
1.60492	-0.401917	-0.000762939	
1.60522	-0.402527	0.000457764	
1.60706	-0.402832	0.000152588	
1.60919	-0.406189	0.000762939	
1.6098	-0.407715	0.000305176	
1.6095	-0.40863	0.000610352	
1.61041	-0.411072	0.000457764	
1.6095	-0.412598	0.000915527	
1.60919	-0.412903	0.000152588	
1.61072	-0.416565	0.000762939	
1.6098	-0.417786	0.000762939	
1.6098	-0.417786	0.000152588	
1.61011	-0.421143	-0.000305176	
1.61072	-0.422668	0.00106812	
1.61194	-0.426331	-0.000152588	
1.61438	-0.427856	0.000457764	
1.61438	-0.428162	0.000152588	
1.6153	-0.430908	0.000152588	
1.6156	-0.432434	0	
1.61499	-0.43335	0.0012207	
1.61438	-0.435791	0.00152588	
1.61499	-0.436707	0.000610352	
1.61499	-0.437622	-0.000152588	
1.61469	-0.440369	0.00167847	
1.61469	-0.441895	0.00106812	
1.61499	-0.442505	0.000457764	
1.61713	-0.445251	0.000457764	
1.61896	-0.447388	0.000610352	
1.61926	-0.447083	0.000610352	
1.61926	-0.45105	0	
1.61957	-0.452271	0.000305176	
1.61987	-0.451965	0.000915527	
1.61926	-0.455933	0.000305176	
1.62018	-0.457153	0.00137329	
1.61987	-0.457153	0.000457764	
1.61987	-0.460205	0.000610352	
1.61957	-0.461426	0.000915527	
1.6217	-0.461426	0.000305176	
1.62415	-0.465088	0.000762939	
1.62445	-0.466614	0	
1.62415	-0.467834	-0.000305176	
1.62415	-0.470276	0	
1.62476	-0.471191	-0.000305176	
1.62445	-0.472107	0.000915527	
1.62445	-0.474854	0.000457764	
1.62476	-0.47699	0.000152588	
1.62476	-0.476074	0.000762939	
1.62445	-0.479431	0.000610352	
1.6275	-0.481262	0.000610352	
1.62933	-0.481567	0.000762939	
1.62933	-0.484619	0.000915527	
1.62964	-0.48584	0.000305176	
1.62964	-0.486755	-0.000457764	
1.62994	-0.490112	0.000762939	
1.62994	-0.491028	0	
1.63055	-0.491943	0	
1.62964	-0.49469	0	
1.62903	-0.495911	0.000152588	
1.62933	-0.496216	0	
1.63147	-0.499268	0.00137329	
1.63391	-0.501404	0.000762939	
1.63422	-0.501404	0.000457764	
1.63422	-0.50415	-0.000305176	
1.63422	-0.506287	0.00167847	
1.63483	-0.505981	0.000762939	
1.63513	-0.508728	0.000457764	
1.63513	-0.510254	0.000305176	
1.63483	-0.510864	0.000457764	
1.63452	-0.513306	0.000457764	
1.63696	-0.515747	0.000305176	
1.6394	-0.516052	0.000305176	
1.63971	-0.515747	0.000915527	
1.6394	-0.518799	0	
1.63879	-0.520325	0.00137329	
1.6394	-0.52124	0.000762939	
1.6394	-0.523071	0.000915527	
1.6394	-0.525818	0.000610352	
1.6394	-0.526123	0.000610352	
1.6394	-0.52887	0.000915527	
1.63971	-0.53009	-0.000152588	
1.64185	-0.530701	-0.000610352	
1.64429	-0.530396	-0.000152588	
1.64429	-0.533752	-0.000152588	
1.64398	-0.534668	0.00106812	
1.64429	-0.535278	0	
1.6449	-0.53833	0	
1.64459	-0.540161	0.00106812	
1.64429	-0.540466	0.000762939	
1.64429	-0.543823	0.000457764	
1.64459	-0.545044	0.000457764	
1.64734	-0.545654	0.000610352	
1.64825	-0.545959	0.000152588	
1.64917	-0.548096	-0.000152588	
1.64948	-0.550537	0.000305176	
1.64978	-0.550842	0.000305176	
1.64978	-0.553589	0.000152588	
1.64978	-0.55542	0.000305176	
1.64978	-0.55542	0.000152588	
1.64978	-0.55481	0.000152588	
1.65192	-0.558167	0.000915527	
1.65375	-0.559692	0.00152588	
1.65405	-0.560608	0.000762939	
1.65497	-0.560913	-0.000305176	
1.65436	-0.563049	0.00152588	
1.65436	-0.56427	0.000762939	
1.65436	-0.564575	0.000762939	
1.65466	-0.567932	0.000152588	
1.65405	-0.570068	0.000305176	
1.65405	-0.570374	0.000457764	
1.6571	-0.570374	0.000610352	
1.65833	-0.57312	0.000457764	
1.65924	-0.575256	0.000610352	
1.65924	-0.575562	0.000152588	
1.65985	-0.574646	0.00167847	
1.65985	-0.578003	0.000762939	
1.65955	-0.579529	0.000610352	
1.66046	-0.579224	0.000915527	
1.65955	-0.579529	0.000457764	
1.66199	-0.582581	0.000610352	
1.66351	-0.583496	0.000305176	
1.66443	-0.585632	-0.000610352	
1.66443	-0.585632	0.000152588	
1.66443	-0.587463	0.000152588	
1.66473	-0.589294	0.000915527	
1.66382	-0.59021	0.000305176	
1.66351	-0.589905	0.000152588	
1.66473	-0.592651	0.000762939	
1.66473	-0.593567	0.000610352	
1.66656	-0.595093	0.000610352	
1.6684	-0.594482	0.000610352	
1.6687	-0.597229	0.000457764	
1.66901	-0.59967	0.000457764	
1.66931	-0.599365	-0.000610352	
1.66931	-0.599365	0.000457764	
1.66992	-0.602417	0.000457764	
1.66901	-0.604248	0	
1.67175	-0.604553	0.000152588	
1.67328	-0.605164	0.000457764	
1.6745	-0.604858	0.000762939	
1.67419	-0.6073	0.000915527	
1.67358	-0.609131	0.00152588	
1.6748	-0.609131	0.000610352	
1.67419	-0.609131	-0.000457764	
1.67389	-0.612793	0.00137329	
1.67358	-0.614014	0.000762939	
1.67603	-0.614929	0.000915527	
1.67877	-0.614014	0.000305176	
1.67938	-0.614624	0	
1.67938	-0.617065	0.000457764	
1.67969	-0.618286	0.000305176	
1.67908	-0.618896	0.000305176	
1.67877	-0.618896	0.000610352	
1.67938	-0.619507	0.000152588	
1.68121	-0.622253	0.00152588	
1.68335	-0.623779	0.000762939	
1.68365	-0.623474	0.000152588	
1.68396	-0.624695	0.000457764	
1.68427	-0.623779	0.000457764	
