model_ppg1.acq
0.5 msec/sample
3 channels
RSP, X, RSPEC-R
Volts
PPG, X, PPGED-R
Volts
ECG, Y, RSPEC-R
mV
CH1	CH2	CH13	
244685	244685	244685	
6.75385	-0.0411987	0.000762939	
6.75629	-0.0402832	0.000457764	
6.76178	-0.0405884	0.000152588	
6.76392	-0.0408936	0.00106812	
6.76392	-0.0411987	0.000152588	
6.76483	-0.0408936	-0.000152588	
6.76422	-0.0405884	0.000305176	
6.76453	-0.0405884	0.000305176	
6.76392	-0.0408936	0.000152588	
6.76636	-0.039978	0.000152588	
6.77094	-0.0408936	-0.000152588	
6.77338	-0.0405884	0.000457764	
6.77368	-0.0405884	0.000457764	
6.77338	-0.0411987	0.00198364	
6.77338	-0.039978	0.000305176	
6.77399	-0.0405884	0.000152588	
6.77429	-0.0411987	0.000610352	
6.77399	-0.0405884	0.000762939	
6.77368	-0.0405884	0.000457764	
6.77368	-0.039978	0.000152588	
6.77368	-0.0402832	0	
6.77551	-0.0405884	0.000915527	
6.78162	-0.0408936	-0.00106812	
6.78406	-0.0402832	0.000762939	
6.78345	-0.0439453	0.000610352	
6.78375	-0.0448608	0.000915527	
6.78345	-0.0454712	0.000610352	
6.78436	-0.045166	0.000610352	
6.78436	-0.0457764	0.000305176	
6.78619	-0.0454712	0.000610352	
6.79108	-0.045166	0.000610352	
6.79352	-0.0457764	0.000610352	
6.79352	-0.0454712	-0.00106812	
6.79321	-0.0454712	0.000152588	
6.79352	-0.045166	0.000305176	
6.79474	-0.0457764	0.000305176	
6.79413	-0.045166	0.000152588	
6.79352	-0.0457764	0.000152588	
6.79443	-0.0448608	0.000305176	
6.79382	-0.045166	0.000457764	
6.79352	-0.0448608	0.000762939	
6.79565	-0.045166	0.000457764	
6.80084	-0.0454712	0.000152588	
6.80328	-0.0457764	0.00106812	
6.80328	-0.045166	0.000305176	
6.80389	-0.045166	-0.000305176	
6.80328	-0.045166	0.000305176	
6.80389	-0.0460815	0	
6.80328	-0.0460815	0.000457764	
6.80511	-0.0457764	0.000457764	
6.81183	-0.0482178	0.000457764	
6.81274	-0.0506592	0.000152588	
6.81396	-0.0500488	0.000152588	
6.81335	-0.0500488	0.00183105	
6.81427	-0.0500488	0.000762939	
6.81274	-0.050354	0.000457764	
6.81274	-0.0506592	0.000457764	
6.81305	-0.0509644	0.000762939	
6.81305	-0.0506592	0.000610352	
6.81305	-0.0506592	0.000152588	
6.81305	-0.0506592	-0.000305176	
6.81519	-0.050354	0.000762939	
6.82068	-0.0506592	-0.000610352	
6.82281	-0.0497437	0.00106812	
6.82373	-0.050354	0.000305176	
6.82343	-0.0506592	0.000762939	
6.82312	-0.050354	0.000305176	
6.82281	-0.0497437	0.000915527	
6.82312	-0.0506592	0.000457764	
6.82556	-0.0506592	0.000762939	
6.83167	-0.0506592	0.000457764	
6.83258	-0.0500488	0.000610352	
6.83319	-0.0531006	-0.0012207	
6.8335	-0.0552368	0	
6.83319	-0.0546265	0.000305176	
6.83289	-0.0552368	0.000152588	
6.8338	-0.055542	0.000152588	
6.83258	-0.0558472	-0.000152588	
6.83319	-0.0552368	0.000305176	
6.83319	-0.0552368	0.000610352	
6.83319	-0.0549316	0.000915527	
6.83502	-0.0552368	0.000152588	
6.84082	-0.055542	0.000305176	
6.84265	-0.0552368	0.00106812	
6.84326	-0.0546265	0.000152588	
6.84326	-0.0558472	-0.000305176	
6.84265	-0.055542	0.000152588	
6.84357	-0.0549316	0	
6.84357	-0.0552368	0.000305176	
6.84601	-0.0561523	0.000610352	
6.85028	-0.0546265	0.000305176	
6.85242	-0.0582886	0.000457764	
6.85242	-0.0601196	0.000457764	
6.85303	-0.06073	0.00198364	
6.85242	-0.0604248	0.000610352	
6.85303	-0.0601196	0.000305176	
6.85333	-0.0601196	0.000457764	
6.85303	-0.0601196	0.000457764	
6.85303	-0.0601196	0.000152588	
6.85333	-0.0598145	0.000152588	
6.85272	-0.0601196	0	
6.85608	-0.06073	0.000457764	
6.86066	-0.0601196	-0.000152588	
6.86249	-0.0598145	0.000762939	
6.86279	-0.0598145	0.000457764	
6.86249	-0.0598145	0.000762939	
6.86249	-0.0595093	0.000610352	
6.86249	-0.0604248	0.000762939	
6.8634	-0.0598145	0.000152588	
6.86432	-0.0637817	0.000762939	
6.87073	-0.0650024	0.000762939	
6.87256	-0.0650024	0.000305176	
6.87256	-0.0650024	-0.00106812	
6.87317	-0.065918	0.000152588	
6.87225	-0.0650024	0.000305176	
6.87317	-0.0650024	0.000305176	
6.87225	-0.0653076	0	
6.87256	-0.0656128	-0.000305176	
6.87286	-0.0650024	0.000457764	
6.87225	-0.0650024	0.000762939	
6.87256	-0.0646973	0.000610352	
6.875	-0.0653076	0.000457764	
6.87958	-0.0650024	0	
6.88263	-0.0646973	0.00137329	
6.88293	-0.0650024	0.000152588	
6.88232	-0.0656128	-0.000152588	
6.88232	-0.067749	-0.000305176	
6.88232	-0.0698853	0	
6.88263	-0.0708008	0.000457764	
6.88385	-0.0698853	0.000305176	
6.88629	-0.0701904	0.000152588	
6.8869	-0.0698853	0.000152588	
6.88751	-0.0698853	0.000457764	
6.88873	-0.0698853	0.00167847	
6.89117	-0.0704956	0.000610352	
6.89178	-0.0704956	0.000152588	
6.8924	-0.0692749	0.000610352	
6.89178	-0.0695801	0.000305176	
6.8924	-0.0698853	0.000457764	
6.8924	-0.0701904	0.000305176	
6.89209	-0.0698853	0.000305176	
6.89362	-0.0701904	0.000152588	
6.89636	-0.0698853	-0.000305176	
6.89758	-0.0695801	0.000457764	
6.89758	-0.0732422	0.000457764	
6.89758	-0.0747681	0.00106812	
6.89728	-0.0741577	0.000457764	
6.89758	-0.0744629	0.000915527	
6.89697	-0.0750732	0.000457764	
6.8985	-0.0747681	0.000305176	
6.90125	-0.0753784	0.000457764	
6.90308	-0.0747681	0.000610352	
6.90186	-0.0750732	-0.00106812	
6.90338	-0.0753784	0.000305176	
6.90582	-0.0747681	0	
6.90735	-0.0750732	0	
6.90704	-0.0747681	0	
6.90735	-0.0750732	0	
6.90674	-0.0744629	0.000152588	
6.90735	-0.0756836	0.000610352	
6.90704	-0.0747681	0.000915527	
6.90948	-0.0756836	0.000457764	
6.91467	-0.078125	-0.000305176	
6.91711	-0.0793457	0.0012207	
6.91742	-0.0799561	0.000305176	
6.91711	-0.0796509	-0.000152588	
6.91711	-0.0799561	-0.000152588	
6.91681	-0.0796509	0.000457764	
6.91711	-0.0799561	0	
6.91956	-0.0793457	0.000305176	
6.92444	-0.0805664	0.000152588	
6.92627	-0.0802612	0.000610352	
6.92688	-0.0799561	0	
6.92688	-0.0802612	0.00183105	
6.92719	-0.0799561	0.000305176	
6.92657	-0.0796509	0.000762939	
6.92719	-0.0802612	0.000610352	
6.92688	-0.0796509	0.000457764	
6.92719	-0.0793457	0.000305176	
6.92688	-0.0802612	0.000152588	
6.92688	-0.0802612	0	
6.92871	-0.083313	0.000610352	
6.9339	-0.0842285	-0.000152588	
6.93665	-0.085144	0.000610352	
6.93634	-0.0836182	0.000915527	
6.93634	-0.0848389	0.000457764	
6.93695	-0.0845337	0.000762939	
6.93756	-0.0845337	0.000457764	
6.93726	-0.0842285	0.000457764	
6.93848	-0.0842285	0.000915527	
6.94061	-0.0839233	0.000457764	
6.94092	-0.0848389	0.000457764	
6.94214	-0.085144	-0.00106812	
6.94214	-0.085144	-0.000152588	
6.94153	-0.0842285	0.000152588	
6.94214	-0.085144	0.000457764	
6.94214	-0.0842285	0.000152588	
6.94244	-0.0848389	0	
6.94519	-0.0836182	0.000457764	
6.94672	-0.0845337	0.000610352	
6.94611	-0.0854492	0.000457764	
6.94763	-0.0845337	0.000305176	
6.95038	-0.0875854	-0.000152588	
6.95129	-0.0897217	0.0012207	
6.9519	-0.0897217	0.000152588	
6.95129	-0.0894165	-0.000152588	
6.9516	-0.0897217	-0.000152588	
6.95251	-0.0897217	0.000457764	
6.9516	-0.0891113	0.000152588	
6.95313	-0.0897217	0.000457764	
6.95923	-0.0897217	0.000152588	
6.96075	-0.0894165	0.000610352	
6.96136	-0.0894165	0	
6.96167	-0.0894165	0.00152588	
6.96167	-0.0894165	0.000610352	
6.96136	-0.0894165	0.000457764	
6.96106	-0.0900269	0.000457764	
6.96167	-0.0897217	0.000457764	
6.96198	-0.0894165	0.000305176	
6.96167	-0.0894165	0.000457764	
6.96106	-0.0894165	-0.000152588	
6.96259	-0.0897217	0.000762939	
6.96533	-0.0900269	-0.000457764	
6.96594	-0.0900269	0.000305176	
6.96655	-0.0924683	0.000915527	
6.96747	-0.0942993	0.000152588	
6.9696	-0.0946045	0.000762939	
6.97083	-0.0942993	0.000762939	
6.97113	-0.0946045	0.000610352	
6.97296	-0.0942993	0.000762939	
6.97479	-0.0952148	0.000915527	
6.97632	-0.0946045	0.000152588	
6.97571	-0.0942993	-0.000915527	
6.97662	-0.0946045	0.000152588	
6.97601	-0.093689	0.000457764	
6.97632	-0.0949097	0.000610352	
6.97601	-0.0942993	0.000305176	
6.97571	-0.0942993	-0.000152588	
6.97601	-0.0949097	0.000152588	
6.97632	-0.0946045	0.000762939	
6.97571	-0.0949097	0.000762939	
6.97845	-0.0942993	0.000305176	
6.98395	-0.0942993	0	
6.98578	-0.0942993	0.000762939	
6.98547	-0.0946045	0.000305176	
6.98547	-0.0939941	-0.000305176	
6.98517	-0.0949097	0.000152588	
6.98578	-0.0946045	0.000152588	
6.98608	-0.0942993	0.000152588	
6.98761	-0.0949097	0	
6.98944	-0.0982666	0.000305176	
6.99097	-0.098877	0.000152588	
6.99097	-0.0994873	0.000305176	
6.9928	-0.0991821	0.00167847	
6.99432	-0.0997925	0.000762939	
6.99524	-0.0991821	0.000762939	
6.99615	-0.0991821	0.000610352	
6.99524	-0.0985718	0.000762939	
6.99615	-0.0991821	0.000457764	
6.99646	-0.0994873	0	
6.99554	-0.0997925	-0.000152588	
6.99738	-0.0991821	0.000305176	
6.99921	-0.0994873	-0.000305176	
7.00104	-0.098877	0.000610352	
7.00073	-0.0997925	0.000762939	
7.00104	-0.0997925	0.000152588	
7.00073	-0.0985718	0.00106812	
7.00104	-0.098877	0.000915527	
7.00073	-0.0991821	0.000762939	
7.00287	-0.0985718	0.000762939	
7.00806	-0.0994873	0.000610352	
7.0105	-0.100098	0.000610352	
7.01111	-0.100098	-0.0012207	
7.0105	-0.0997925	0	
7.01172	-0.098877	0.000152588	
7.01111	-0.0991821	0.000152588	
7.0105	-0.0994873	0	
7.0108	-0.0991821	0.000152588	
7.0108	-0.0991821	0.000457764	
7.0105	-0.0985718	0.000305176	
7.0105	-0.0991821	0.000457764	
7.01233	-0.102844	0.000305176	
7.01508	-0.10437	-0.000152588	
7.0166	-0.10437	0.000762939	
7.0163	-0.104675	0.000610352	
7.01538	-0.104675	0	
7.01569	-0.104675	0	
7.01599	-0.10437	0.000305176	
7.01508	-0.10437	0.000152588	
7.01782	-0.10437	-0.000152588	
7.02362	-0.10437	0.000305176	
7.02515	-0.10437	0.000152588	
7.02576	-0.10437	0.000457764	
7.02576	-0.104065	0.00198364	
7.02576	-0.10498	0.000305176	
7.02576	-0.10437	0.000305176	
7.02515	-0.104065	0.000305176	
7.02576	-0.10437	0.000305176	
7.02515	-0.10437	0.000152588	
7.02606	-0.104675	0.000152588	
7.02576	-0.104065	-0.000152588	
7.02667	-0.104675	0.000457764	
7.02911	-0.10437	-0.000610352	
7.03033	-0.10437	0.000915527	
7.03064	-0.10437	0.000457764	
7.03033	-0.10437	0.000610352	
7.03033	-0.10437	0.00106812	
7.03064	-0.104065	0.000305176	
7.03064	-0.104065	0.000305176	
7.03247	-0.104065	0.000915527	
7.03827	-0.104065	0.000762939	
7.04041	-0.104675	0.000305176	
7.0401	-0.10437	-0.000762939	
7.03979	-0.10437	0.000305176	
7.04041	-0.104675	0.000152588	
7.04102	-0.104675	0.000305176	
7.04071	-0.107117	0.000457764	
7.0401	-0.109253	-0.000152588	
7.0401	-0.110168	0.000610352	
7.0401	-0.108948	0.000305176	
7.03979	-0.109863	0.000915527	
7.04193	-0.109253	0.000610352	
7.04315	-0.109558	0	
7.04468	-0.109558	0.0012207	
7.04498	-0.108643	0.000610352	
7.04498	-0.108643	0.000305176	
7.04559	-0.109558	0	
7.04529	-0.109558	0.000152588	
7.04437	-0.109558	0	
7.04773	-0.109558	0.000305176	
7.05292	-0.108948	0.000152588	
7.05566	-0.109558	0.000152588	
7.05505	-0.108948	0	
7.05536	-0.109253	0.00198364	
7.05475	-0.109253	0.000305176	
7.05505	-0.109253	0.000457764	
7.05536	-0.109558	0.000457764	
7.05505	-0.108948	0	
7.05444	-0.108948	0.000610352	
7.05505	-0.109558	0.000152588	
7.05505	-0.109558	0.000152588	
7.05658	-0.108948	0.000305176	
7.05933	-0.108948	-0.000305176	
7.06024	-0.108948	0.000610352	
7.06055	-0.109253	0.000457764	
7.05963	-0.109253	0.000610352	
7.06024	-0.109253	0.000610352	
7.06024	-0.109558	0.000610352	
7.06024	-0.109253	0.000457764	
7.06299	-0.109558	0.000610352	
7.06757	-0.11261	0.000457764	
7.07031	-0.113525	0.000610352	
7.07123	-0.114441	-0.00106812	
7.07031	-0.114136	0	
7.07062	-0.115051	0.000457764	
7.0697	-0.114136	0.000305176	
7.0694	-0.113831	0	
7.07092	-0.114746	0	
7.0697	-0.114136	0.000610352	
7.0697	-0.113831	0.000457764	
7.07062	-0.113525	0.000762939	
7.07123	-0.113831	0.000305176	
7.07397	-0.114136	-0.000152588	
7.07458	-0.114136	0.00106812	
7.07458	-0.114441	0.000457764	
7.07489	-0.114136	0	
7.0752	-0.114746	-0.000152588	
7.07489	-0.114136	0	
7.07458	-0.114136	0.000762939	
7.0752	-0.114441	0.000152588	
7.07886	-0.114136	0.000762939	
7.08008	-0.114136	0.000152588	
7.08008	-0.113831	0.000305176	
7.07886	-0.115051	0.00198364	
7.08069	-0.114136	0.000915527	
7.07977	-0.114136	0.000457764	
7.08069	-0.114746	0.000915527	
7.0816	-0.114136	0.000457764	
7.08282	-0.114441	0.000915527	
7.08435	-0.114441	0	
7.08588	-0.114746	0	
7.08618	-0.113525	0.000457764	
7.08771	-0.116882	-0.000457764	
7.08954	-0.119324	0.0012207	
7.09015	-0.119324	0.000305176	
7.08923	-0.119019	0.000610352	
7.08923	-0.119019	0.000915527	
7.09015	-0.118408	0.000610352	
7.09015	-0.118103	0.000457764	
7.09106	-0.118713	0.000457764	
7.0932	-0.119019	0.000457764	
7.09473	-0.118713	0.000457764	
7.09503	-0.119019	-0.000610352	
7.09503	-0.120544	0.000457764	
7.09503	-0.118713	0.000305176	
7.09473	-0.119324	0.000457764	
7.09473	-0.119324	-0.000457764	
7.09503	-0.119019	0.000457764	
7.09473	-0.118713	0	
7.09412	-0.118713	0.000915527	
7.09503	-0.119019	0.000762939	
7.09534	-0.118713	0	
7.09808	-0.119324	0.000305176	
7.10022	-0.119019	0.000762939	
7.0993	-0.119019	0.000762939	
7.09991	-0.119019	0	
7.09961	-0.119019	-0.000305176	
7.09961	-0.119019	-0.000152588	
7.09961	-0.118713	0.000762939	
7.10083	-0.119019	-0.000305176	
7.10327	-0.119019	0.000610352	
7.10419	-0.119324	0.000457764	
7.10419	-0.119019	0.000152588	
7.10571	-0.118713	0.00228882	
7.10785	-0.119019	0.000915527	
7.10968	-0.119324	0.000152588	
7.10938	-0.119019	0.000915527	
7.10999	-0.118713	0.000152588	
7.10999	-0.119019	0.000305176	
7.10938	-0.119019	0.000152588	
7.10999	-0.118713	0	
7.1109	-0.119324	0.000457764	
7.11273	-0.119324	-0.000305176	
7.11426	-0.119324	0.000762939	
7.11395	-0.119324	0.000305176	
7.11395	-0.119019	0.000305176	
7.11456	-0.118713	0.000915527	
7.11395	-0.118713	0.000457764	
7.11426	-0.119019	0.000305176	
7.11548	-0.119019	0.0012207	
7.11823	-0.121765	0.000152588	
7.11884	-0.123291	0.000457764	
7.11914	-0.123901	-0.000762939	
7.11914	-0.124207	0.000457764	
7.11975	-0.123901	0.000305176	
7.11914	-0.124207	0.000610352	
7.11914	-0.124207	-0.000152588	
7.11914	-0.124512	0.000152588	
7.12006	-0.124512	0	
7.11914	-0.123901	0.000762939	
7.11884	-0.124207	0.000915527	
7.12006	-0.123291	0.000610352	
7.12341	-0.123901	0	
7.12463	-0.124207	0.000915527	
7.12433	-0.123596	0.000762939	
7.12433	-0.123901	0	
7.12372	-0.124207	-0.000152588	
7.12341	-0.124817	0	
7.12463	-0.123901	0.000305176	
7.12555	-0.123596	0.000457764	
7.12738	-0.123901	0.000305176	
7.12891	-0.123901	0.000305176	
7.12891	-0.124817	0.000305176	
7.12891	-0.123901	0.00198364	
7.1286	-0.123596	0.000915527	
7.12921	-0.124512	0.000457764	
7.12921	-0.123596	0.000762939	
7.12921	-0.123901	0.000305176	
7.12891	-0.123901	0.000457764	
7.12952	-0.124207	0	
7.12921	-0.124207	-0.000152588	
7.13043	-0.124207	0.000305176	
7.13226	-0.124207	-0.000152588	
7.13379	-0.124207	0.000457764	
7.1344	-0.124817	0.000457764	
7.13409	-0.124207	0.000152588	
7.13379	-0.123596	0.00106812	
7.13409	-0.123596	0.00106812	
7.13348	-0.124512	0.000457764	
7.13501	-0.123291	0.000610352	
7.13776	-0.124207	0.000152588	
7.13898	-0.123596	0.000305176	
7.13806	-0.124207	-0.000762939	
7.1402	-0.124207	0	
7.14264	-0.124207	0.000152588	
7.14478	-0.123596	0.000457764	
7.14386	-0.123596	0	
7.14355	-0.12085	0.000152588	
7.14386	-0.119324	0.000152588	
7.14447	-0.119019	0.000610352	
7.14417	-0.118713	0.000610352	
7.14355	-0.118713	0.000305176	
7.14447	-0.118408	0	
7.14417	-0.119324	0.0012207	
7.14386	-0.119324	0.000152588	
7.14569	-0.119019	0	
7.14722	-0.119324	0.000152588	
7.14844	-0.119019	0.000305176	
7.14905	-0.119019	0.000305176	
7.14996	-0.118713	0.000152588	
7.1521	-0.119019	0	
7.15393	-0.120239	0.000305176	
7.15393	-0.119934	0.000457764	
7.15393	-0.119629	0.00198364	
7.15363	-0.118408	0.000762939	
7.15393	-0.119019	0.000305176	
7.15332	-0.119019	0.000762939	
7.15393	-0.119019	0.000457764	
7.15363	-0.118408	0.000457764	
7.15363	-0.119019	0.000152588	
7.15363	-0.119324	-0.000152588	
7.15515	-0.119324	0.000152588	
7.1579	-0.119934	-0.000152588	
7.15881	-0.118713	0.000762939	
7.15912	-0.118408	0.000610352	
7.15881	-0.118408	0.000457764	
7.15881	-0.119019	0.000915527	
7.15912	-0.118713	0.000610352	
7.15881	-0.119324	0.000762939	
7.16003	-0.119019	0.00106812	
7.16217	-0.118713	0.000457764	
7.16339	-0.119324	0.000457764	
7.164	-0.119019	-0.000305176	
7.16339	-0.118713	-0.000152588	
7.16339	-0.119019	0.000610352	
7.164	-0.119019	0.000305176	
7.16431	-0.119629	-0.000305176	
7.16339	-0.118713	0	
7.16461	-0.119019	0.000152588	
7.164	-0.119324	0.000915527	
7.16309	-0.119324	0.000762939	
7.16492	-0.118713	0.000152588	
7.16736	-0.119324	0	
7.16797	-0.119019	0.000915527	
7.16858	-0.118713	0.000457764	
7.16919	-0.119019	0	
7.16888	-0.119629	0.000305176	
7.16858	-0.119019	0	
7.16797	-0.119629	0	
7.16949	-0.119019	0.000457764	
7.16888	-0.119019	0.000152588	
7.16888	-0.118713	0.000305176	
7.16919	-0.119019	0.000152588	
7.17041	-0.118408	0.00183105	
7.17285	-0.119019	0.000915527	
7.17377	-0.118713	0.000152588	
7.17407	-0.119019	0.000610352	
7.17407	-0.119324	0.000457764	
7.17346	-0.119019	0.000762939	
7.17316	-0.119324	0	
7.17346	-0.122681	-0.000152588	
7.17407	-0.123901	0.000152588	
7.17377	-0.124512	-0.000457764	
7.17316	-0.123901	0.000915527	
7.17407	-0.124512	0.000457764	
7.17407	-0.123901	0.000305176	
7.17377	-0.123596	0.000762939	
7.17377	-0.124207	0.000457764	
7.17407	-0.123901	0.000762939	
7.17468	-0.123901	0.000610352	
7.17804	-0.124207	0.000305176	
7.17834	-0.123901	0	
7.17896	-0.124207	-0.000457764	
7.17865	-0.124207	0.000152588	
7.17896	-0.123596	0.000152588	
7.17926	-0.124207	0	
7.17865	-0.123901	0.000152588	
7.17865	-0.123901	0.000305176	
7.17834	-0.124512	0.000152588	
7.17834	-0.123901	0.000915527	
7.17804	-0.124207	0.000610352	
7.17926	-0.124512	0.000457764	
7.18231	-0.123596	-0.000457764	
7.18384	-0.123901	0.00106812	
7.18353	-0.124207	0.000152588	
7.18292	-0.123901	0	
7.18384	-0.123901	-0.000457764	
7.18384	-0.124512	0.000457764	
7.18353	-0.124207	0.000457764	
7.18506	-0.123596	0.000610352	
7.18781	-0.124207	0.00106812	
7.18811	-0.124207	0	
7.18872	-0.123901	0.000152588	
7.18842	-0.123901	0.00183105	
7.18872	-0.123901	0.00106812	
7.18872	-0.124207	0.000305176	
7.18842	-0.123291	0.000610352	
7.18842	-0.123596	0.000457764	
7.18811	-0.124207	0.000457764	
7.18842	-0.124207	0.000152588	
7.18811	-0.123901	0.000152588	
7.18933	-0.124512	0.000457764	
7.19208	-0.124207	-0.000457764	
7.1933	-0.123596	0.000457764	
7.1936	-0.123901	0.000610352	
7.1936	-0.124207	0.000305176	
7.19391	-0.123596	0.000762939	
7.1933	-0.124207	0.000457764	
7.1933	-0.123901	0.000762939	
7.19238	-0.124207	0.00106812	
7.1933	-0.124207	0.000457764	
7.1936	-0.124512	0.000152588	
7.1933	-0.123901	-0.000762939	
7.19269	-0.124207	0.000457764	
7.1933	-0.124207	0.000305176	
7.19299	-0.124207	0.000457764	
7.1936	-0.123901	0.000305176	
7.19421	-0.124207	0.000152588	
7.19727	-0.124207	-0.000152588	
7.19849	-0.123596	0.000762939	
7.19788	-0.124207	0.000610352	
7.19788	-0.124207	0.000305176	
7.19818	-0.124207	-0.000152588	
7.19788	-0.123901	0.000762939	
7.19849	-0.124207	0.000457764	
7.19788	-0.124207	-0.000305176	
7.19849	-0.123291	-0.000152588	
7.19818	-0.124207	0.000457764	
7.19788	-0.124207	0.000457764	
7.1991	-0.123901	0.000305176	
7.20215	-0.123901	0.000762939	
7.20306	-0.123901	0.000152588	
7.20306	-0.123901	0.000305176	
7.20306	-0.124207	0.00183105	
7.20337	-0.123291	0.000457764	
7.20306	-0.124207	0	
7.20398	-0.123596	0.000762939	
7.20306	-0.124207	0.000305176	
7.20337	-0.123596	0.000152588	
7.20306	-0.124817	0	
7.20337	-0.124817	0.000152588	
7.20306	-0.124512	0.000457764	
7.20398	-0.124207	-0.000152588	
7.20306	-0.123291	0.000915527	
7.20306	-0.123596	0.000762939	
7.20459	-0.124207	0.000305176	
7.20703	-0.124207	0.0012207	
7.20795	-0.124207	0.000610352	
7.20764	-0.123596	0.000305176	
7.20856	-0.123901	0.000610352	
7.20886	-0.120544	0	
7.20825	-0.119324	0.000152588	
7.20856	-0.119324	-0.000305176	
7.20764	-0.118713	0.000152588	
7.20825	-0.119324	0.000152588	
7.20734	-0.118713	0.000457764	
7.20795	-0.119324	0.000152588	
7.20825	-0.119019	0	
7.20734	-0.119324	0.000152588	
7.20764	-0.119934	0.000915527	
7.20856	-0.119324	0.000762939	
7.20917	-0.119324	0.000457764	
7.21191	-0.119324	-0.000152588	
7.21283	-0.119629	0.00106812	
7.21344	-0.119019	0.000305176	
7.21344	-0.119324	0.000152588	
7.21252	-0.119019	-0.000152588	
7.21344	-0.115356	0	
7.21375	-0.114441	0.000915527	
7.21313	-0.114136	0.000457764	
7.21313	-0.113831	0.000610352	
7.21313	-0.114136	0.000457764	
7.21344	-0.113831	0.000152588	
7.21344	-0.113831	0.00198364	
7.21313	-0.113831	0.000762939	
7.21313	-0.114746	0	
7.21344	-0.114441	0.000762939	
7.21313	-0.113831	0.000152588	
7.21375	-0.111084	0.000610352	
7.21283	-0.109253	0	
7.21283	-0.109558	0.000152588	
7.21405	-0.110474	0.000305176	
7.21741	-0.109558	-0.000305176	
7.21802	-0.108643	0.000762939	
7.21771	-0.109558	0.000305176	
7.21832	-0.108948	0.000305176	
7.21771	-0.106506	0.000457764	
7.21832	-0.10437	0.000457764	
7.21832	-0.10376	0.000152588	
7.21802	-0.104065	0.000762939	
7.21802	-0.10437	0.000152588	
7.21802	-0.10437	0.000305176	
7.21771	-0.101013	-0.000305176	
7.21893	-0.100403	-0.000152588	
7.21802	-0.098877	0.000152588	
7.21893	-0.0994873	0.000305176	
7.21802	-0.0991821	0	
7.21832	-0.0994873	0.000305176	
7.21802	-0.0961304	0.000152588	
7.21741	-0.0946045	0.000762939	
7.21771	-0.0942993	0.000457764	
7.21893	-0.0949097	0.000152588	
7.22198	-0.0946045	-0.000152588	
7.2226	-0.0921631	0.000915527	
7.22321	-0.0897217	0.000610352	
7.2229	-0.0900269	-0.000152588	
7.2226	-0.0894165	-0.000152588	
7.22321	-0.0897217	0.000457764	
7.22351	-0.0866699	0.000305176	
7.2226	-0.0854492	0.000457764	
7.2226	-0.0836182	0.000610352	
7.2226	-0.0848389	0.000305176	
7.22321	-0.0845337	0	
7.22382	-0.0814819	0.00167847	
7.2229	-0.0802612	0.000762939	
7.2229	-0.0796509	0.000152588	
7.2229	-0.0790405	0.000610352	
7.22229	-0.0765991	0.000305176	
7.22321	-0.0750732	0.000915527	
7.22321	-0.0750732	0.000152588	
7.22321	-0.0720215	0.000152588	
7.22351	-0.0698853	0.000305176	
7.22351	-0.0698853	-0.000305176	
7.22321	-0.0701904	0.0012207	
7.22351	-0.0665283	0.000610352	
7.2226	-0.0662231	0.000305176	
7.22351	-0.0653076	0.000762939	
7.2229	-0.062561	0.000762939	
7.22321	-0.0604248	0.000610352	
7.22473	-0.0601196	0.000457764	
7.22717	-0.0604248	0.000152588	
7.22778	-0.0576782	0.000610352	
7.2287	-0.0558472	-0.000457764	
7.22839	-0.0558472	0.000152588	
7.2287	-0.0521851	0	
7.22778	-0.0512695	0.000610352	
7.22748	-0.0506592	0	
7.22839	-0.0473022	0.000305176	
7.22778	-0.0460815	0.000457764	
7.22809	-0.0454712	0.000915527	
7.22778	-0.0424194	0.000610352	
7.22839	-0.0405884	0.000152588	
7.22839	-0.0375366	-0.000457764	
7.22809	-0.0357056	0.000915527	
7.22778	-0.0357056	0.000305176	
7.22809	-0.032959	0	
7.22778	-0.0305176	0	
7.22839	-0.0308228	0.000152588	
7.22748	-0.0271606	0.000305176	
7.22778	-0.0259399	0	
7.22778	-0.0231934	0.000610352	
7.22778	-0.0213623	0.000457764	
7.22748	-0.0210571	0	
7.22748	-0.0180054	0.00167847	
7.22809	-0.0164795	0.000762939	
7.22839	-0.0125122	0.000305176	
7.22778	-0.0109863	0.000762939	
7.22778	-0.0109863	0.000152588	
7.22839	-0.00732422	0.000610352	
7.2287	-0.00701904	0	
7.22717	-0.00335693	0.000152588	
7.22961	-0.000915527	0.000457764	
7.23114	0.0012207	-0.000305176	
7.23236	0.00274658	0.000762939	
7.23267	0.00305176	0.000762939	
7.23236	0.00610352	0.000457764	
7.23267	0.00823975	0.000762939	
7.23297	0.0112915	0.000152588	
7.23328	0.0134277	0.000610352	
7.23297	0.015564	0.0012207	
7.23236	0.0177002	0.000457764	
7.23297	0.0210571	0.000457764	
7.23297	0.0228882	-0.00106812	
7.23328	0.0265503	0	
7.23236	0.0274658	0.000152588	
7.23328	0.0274658	0.000457764	
7.23267	0.0308228	-0.000305176	
7.23297	0.0323486	0.000610352	
7.23328	0.0360107	0.000152588	
7.23236	0.0378418	0.000915527	
7.23236	0.0405884	0.000610352	
7.23297	0.0421143	0.000457764	
7.23297	0.0457764	-0.000457764	
7.23297	0.0476074	0.000915527	
7.23297	0.050354	0.000457764	
7.23236	0.0524902	-0.000152588	
7.23267	0.0564575	-0.000305176	
7.23267	0.057373	0.000152588	
7.23297	0.0604248	0.000610352	
7.23358	0.0619507	0.000457764	
7.23328	0.0653076	0.000152588	
7.23267	0.0695801	0.000305176	
7.23297	0.0720215	0.000152588	
7.23328	0.0756836	0.00167847	
7.23267	0.0765991	0.00106812	
7.23358	0.0808716	0.000152588	
7.23267	0.0814819	0.000457764	
7.23267	0.0842285	0.000152588	
7.23297	0.0863647	0.000457764	
7.23267	0.0891113	0.000152588	
7.23236	0.0906372	0.000152588	
7.23328	0.0939941	0.000610352	
7.23267	0.09552	-0.000305176	
7.23328	0.0991821	0.00106812	
7.23297	0.101013	0.000457764	
7.23267	0.10376	0.000610352	
7.23236	0.108643	0.000915527	
7.23358	0.110168	0.000610352	
7.23328	0.114136	0.000305176	
7.23297	0.115967	0.000915527	
7.23297	0.119019	0.000305176	
7.23328	0.120239	0.000457764	
7.23297	0.123901	-0.000305176	
7.23297	0.125732	0.000305176	
7.23267	0.129089	0.000152588	
7.23236	0.133057	0.000610352	
7.23297	0.134583	0.000152588	
7.23328	0.13855	0.000152588	
7.23267	0.140381	0	
7.23267	0.143738	0.000915527	
7.23297	0.145264	0.000457764	
7.23328	0.14801	0.00106812	
7.23328	0.152893	-0.000152588	
7.23267	0.154724	0.000915527	
7.23297	0.157471	0.000457764	
7.23297	0.158386	-0.000305176	
7.23267	0.162354	0	
7.23236	0.16449	0.000305176	
7.23297	0.167847	0.000762939	
7.23328	0.169067	-0.000152588	
7.23297	0.172424	0.000762939	
7.23267	0.177612	0	
7.23267	0.179138	0	
7.23267	0.182495	0.00167847	
7.23328	0.184326	0.000762939	
7.23358	0.187378	0.000305176	
7.23267	0.189209	0.000915527	
7.23297	0.19165	0.000305176	
7.23267	0.196838	0.000610352	
7.23297	0.198975	0	
7.23328	0.201721	0.000152588	
7.23297	0.203552	0.000610352	
7.23236	0.206909	-0.000152588	
7.23297	0.208435	0.000762939	
7.23328	0.212708	0.000610352	
7.23236	0.213013	0.000457764	
7.23267	0.216675	0.0012207	
7.23297	0.221252	0.000610352	
7.23297	0.223083	0.000457764	
7.23267	0.227051	0.000610352	
7.23297	0.228882	0.000457764	
7.23267	0.231934	0.000457764	
7.23297	0.232849	-0.000305176	
7.23236	0.236511	0.000610352	
7.23297	0.238342	0	
7.23297	0.240479	0.000305176	
7.23297	0.245667	0.000305176	
7.23267	0.247192	-0.000152588	
7.23297	0.251465	0.000152588	
7.23297	0.253296	0.000915527	
7.23267	0.255737	0.000762939	
7.23267	0.258789	0.000762939	
7.23328	0.260925	-0.000152588	
7.23297	0.262756	0.00106812	
7.23297	0.265808	0.000305176	
7.23297	0.267334	0.000457764	
7.23358	0.271301	0.000152588	
7.23328	0.272217	0.000152588	
7.23297	0.275879	0.000152588	
7.23297	0.277405	0	
7.23328	0.280762	0.000305176	
7.23297	0.283203	0.000457764	
7.23206	0.285034	-0.000305176	
7.23267	0.28717	0.00198364	
7.23236	0.290527	0.000915527	
7.23267	0.2948	0.000152588	
7.23297	0.297241	0.000457764	
7.23297	0.296936	0.000305176	
7.23297	0.299988	0.000610352	
7.23297	0.302124	0.000152588	
7.23236	0.305786	0.000152588	
7.23206	0.307007	0.000457764	
7.229	0.309753	-0.000305176	
7.22809	0.311584	0.000457764	
7.22809	0.314331	0.000152588	
7.22839	0.315552	0.000305176	
7.22839	0.319519	0.00137329	
7.22748	0.321655	0.000610352	
7.22778	0.325012	0.000610352	
7.22778	0.326538	0.000610352	
7.22809	0.32959	0.000305176	
7.22778	0.331421	0.000610352	
7.22809	0.333557	-0.000762939	
7.22748	0.335693	0.000305176	
7.22839	0.337219	0	
7.22778	0.339661	0.000305176	
7.22839	0.340576	0.000152588	
7.22717	0.344238	0.000152588	
7.22778	0.345764	0.000610352	
7.22748	0.349121	0.000305176	
7.22809	0.351563	0.000610352	
7.22778	0.350647	0.000915527	
7.22839	0.354309	-0.000305176	
7.22748	0.35553	0.0012207	
7.22809	0.358582	0.000762939	
7.22809	0.360718	0	
7.22748	0.36377	-0.000152588	
7.22809	0.364685	0.000305176	
7.22778	0.366211	0.000457764	
7.22656	0.368347	0.000305176	
7.22412	0.369873	0.000305176	
7.22351	0.371094	0.000610352	
7.22229	0.373535	0	
7.22321	0.375366	0.00183105	
7.2226	0.378723	0.000915527	
7.22321	0.379944	0.000457764	
7.22351	0.380859	0.000610352	
7.22321	0.384216	0	
7.2226	0.384827	0.000457764	
7.2229	0.385742	0	
7.22321	0.388489	0.000305176	
7.22321	0.390015	0.000457764	
7.22382	0.391235	-0.000305176	
7.2226	0.393066	0.000610352	
7.2229	0.395508	0.000762939	
7.22321	0.395203	0.000152588	
7.2226	0.39856	0.00106812	
7.22351	0.39978	0.000762939	
7.2226	0.400696	0.000610352	
7.22168	0.402832	0.000610352	
7.21985	0.404663	0.000457764	
7.21771	0.405579	0.000457764	
7.21802	0.404968	-0.000305176	
7.21832	0.407715	0	
7.21832	0.409241	-0.000152588	
7.21832	0.409851	0.000305176	
7.21771	0.409241	0.000610352	
7.21832	0.413208	0.000152588	
7.21802	0.414429	0	
7.21832	0.414124	0.000610352	
7.21802	0.418396	0.000305176	
7.21802	0.419922	0.000762939	
7.21863	0.419312	-0.000457764	
7.21802	0.419922	0.0012207	
7.21802	0.419006	0.000305176	
7.21802	0.423279	0	
7.21832	0.424805	-0.000457764	
7.21802	0.424194	0	
7.21802	0.4245	0.000305176	
7.21649	0.427551	0.000152588	
7.21466	0.429077	0.000610352	
7.21375	0.429688	0.000152588	
7.21283	0.429993	-0.000152588	
7.21344	0.428467	0.00167847	
7.21405	0.432739	0.00106812	
7.21375	0.43396	0.000305176	
7.21283	0.43457	0.000457764	
7.21344	0.43457	0.000457764	
7.21344	0.43396	0.000457764	
7.21344	0.434265	0	
7.21313	0.437622	0.000152588	
7.21252	0.439148	0.000305176	
7.21283	0.439148	0	
7.21344	0.439148	0.000762939	
7.21283	0.438843	0.000610352	
7.21313	0.439453	0	
7.21283	0.438843	0.00106812	
7.21283	0.442505	0.000915527	
7.21252	0.44342	0.000305176	
7.21222	0.443115	0.000915527	
7.20947	0.444031	0.000305176	
7.20856	0.444336	0.000915527	
7.20856	0.444336	-0.000305176	
7.20795	0.444336	0.000152588	
7.20886	0.444336	0	
7.20764	0.444336	0.000305176	
7.20825	0.444031	0.000152588	
7.20886	0.444336	0.000152588	
7.20825	0.446472	0.000152588	
7.20825	0.449219	0.000762939	
7.20825	0.449219	0.000610352	
7.20886	0.449524	0.000915527	
7.20764	0.449219	-0.000152588	
7.20825	0.449219	0.000915527	
7.20734	0.448608	0.000457764	
7.20886	0.449219	-0.000152588	
7.20856	0.448608	-0.000305176	
7.20795	0.449219	0.000305176	
7.20764	0.448608	0.000152588	
7.20734	0.449219	0.000305176	
7.20398	0.449524	0.000457764	
7.20367	0.449219	0.000305176	
7.20337	0.449524	-0.000305176	
7.20306	0.449524	0.00183105	
7.20337	0.449219	0.00106812	
7.20337	0.449524	0.000152588	
7.20276	0.448914	0.000152588	
7.20306	0.448303	0.000152588	
7.20306	0.449524	0.000915527	
7.20367	0.448608	-0.000152588	
7.20306	0.449219	0.000305176	
7.20215	0.448914	0.000457764	
7.1994	0.449219	-0.000152588	
7.19818	0.448608	0.000762939	
7.19879	0.448914	0.000457764	
7.19849	0.449219	0.000305176	
7.19788	0.448914	0.0012207	
7.19849	0.448914	0.000457764	
7.19849	0.449524	0.000305176	
7.19635	0.448914	0.000457764	
7.19482	0.448303	0.000305176	
7.1936	0.448914	0.000610352	
7.1936	0.446167	-0.000152588	
7.19299	0.444946	0	
7.1936	0.444946	0.000152588	
7.1933	0.444336	0.000152588	
7.19269	0.444336	0	
7.19391	0.443726	0.000610352	
7.19299	0.444336	0.000457764	
7.1933	0.444641	0.000762939	
7.19269	0.444336	0.000610352	
7.1936	0.444031	0.000152588	
7.1936	0.444336	-0.000152588	
7.1933	0.441589	0.0012207	
7.19238	0.439758	0.000305176	
7.1933	0.438843	-0.000152588	
7.19299	0.439453	-0.000305176	
7.19391	0.439453	0.000305176	
7.1936	0.439453	0.000152588	
7.19238	0.438538	0.000152588	
7.18964	0.436096	0.000152588	
7.18903	0.434875	0.000305176	
7.18781	0.434875	0	
7.18872	0.435181	0.00183105	
7.18781	0.43457	0.000915527	
7.18842	0.434875	0.000610352	
7.18842	0.43457	0.000610352	
7.18811	0.431824	0	
7.18781	0.429688	0.000915527	
7.1875	0.429688	-0.000152588	
7.18872	0.429688	0	
7.18719	0.429077	0.000305176	
7.18536	0.426331	-0.000457764	
7.18414	0.424805	0.000610352	
7.18353	0.424805	0.000457764	
7.18292	0.424194	0.000915527	
7.18384	0.424805	0.00137329	
7.18292	0.421143	0.000457764	
7.18323	0.420227	0.000762939	
7.18353	0.419922	0.000152588	
7.18353	0.419312	0.000610352	
7.18353	0.419617	0.000152588	
7.18353	0.41687	0.000610352	
7.1817	0.414734	-0.000457764	
7.17987	0.414429	0	
7.17834	0.411987	0	
7.17834	0.410156	0.000305176	
7.17896	0.410156	0.000152588	
7.17896	0.40863	0.000152588	
7.17773	0.410156	0.000762939	
7.17865	0.406189	0.000457764	
7.17682	0.405579	-0.000152588	
7.17499	0.404663	0.000915527	
7.17407	0.405273	0.000915527	
7.17346	0.402222	0.000457764	
7.17377	0.400391	-0.000152588	
7.17346	0.398865	-0.000152588	
7.17377	0.397339	0.000305176	
7.17377	0.395203	-0.000152588	
7.17224	0.396118	0.000305176	
7.17041	0.394287	0	
7.16858	0.391846	-0.000305176	
7.16949	0.39093	0.00106812	
7.16827	0.390625	0.00152588	
7.16919	0.386963	0.0012207	
7.16827	0.385742	0.000305176	
7.16888	0.385132	0.000457764	
7.16888	0.385437	0.000305176	
7.16919	0.38208	0.000457764	
7.16827	0.381165	0	
7.16888	0.380554	0.000305176	
7.16705	0.377197	-0.000305176	
7.16522	0.375366	0.000915527	
7.16339	0.375671	-0.000152588	
7.164	0.373535	0.000457764	
7.16339	0.370789	0.000152588	
7.1637	0.371094	0.0012207	
7.16339	0.370483	0.000457764	
7.16431	0.368042	0.000305176	
7.164	0.365906	0.000610352	
7.16278	0.365906	0.000457764	
7.164	0.362244	0.000152588	
7.164	0.361938	0.000915527	
7.16248	0.360718	-0.000457764	
7.15973	0.357971	0	
7.1582	0.356445	0.000762939	
7.15942	0.35553	0.000152588	
7.15851	0.352783	0.000457764	
7.15881	0.351257	0.000152588	
7.15881	0.350952	0.000457764	
7.15881	0.348511	0.00106812	
7.15912	0.34668	0	
7.15851	0.345764	0.0012207	
7.15912	0.343018	0.000610352	
7.15881	0.341492	0.000610352	
7.15851	0.33783	0.000152588	
7.15454	0.336304	-0.000610352	
7.15454	0.335999	0.000152588	
7.15424	0.333252	0.000457764	
7.15271	0.331421	0.000152588	
7.14966	0.331421	0.000305176	
7.14935	0.328064	-0.000305176	
7.14874	0.326538	0.00106812	
7.14844	0.326233	0.00152588	
7.14905	0.323486	0.000915527	
7.14905	0.322876	0.000305176	
7.14874	0.318298	0.000610352	
7.14905	0.317078	0	
7.14874	0.316162	0.000915527	
7.14844	0.313721	0.000152588	
7.14813	0.31189	0	
7.14722	0.311584	-0.000152588	
7.14478	0.308838	0.000915527	
7.14417	0.307617	0.000305176	
7.14417	0.303955	0.000305176	
7.14355	0.301208	0.000762939	
7.14355	0.302429	0.000915527	
7.14447	0.299683	0.000610352	
7.14386	0.297241	0.00106812	
7.14294	0.294495	0.000762939	
7.13989	0.291443	0	
7.13898	0.292358	0.000152588	
7.13898	0.289307	0.000762939	
7.13928	0.28717	-0.000305176	
7.13898	0.284729	-0.000152588	
7.13959	0.282288	0.000152588	
7.13928	0.282288	0.000152588	
7.13867	0.279846	0.000457764	
7.13898	0.278015	-0.000152588	
7.13867	0.27771	0.000610352	
7.13898	0.274353	0.000762939	
7.13776	0.272827	0	
7.13531	0.26947	0.000762939	
7.13379	0.268555	0.000305176	
7.1344	0.267944	0.000610352	
7.13348	0.264587	-0.000152588	
7.13409	0.263062	-0.000152588	
7.13409	0.26001	0	
7.13379	0.258179	0.000152588	
7.13257	0.257568	0.000152588	
7.13074	0.254822	0.000305176	
7.12952	0.253601	-0.000457764	
7.12921	0.250244	0.00106812	
7.12891	0.248413	0.00183105	
7.12921	0.245361	0.0012207	
7.12952	0.24353	0.000610352	
7.12921	0.243225	0.000762939	
7.12921	0.239563	-0.000152588	
7.12891	0.238342	0.000457764	
7.12921	0.235291	0.000152588	
7.12891	0.233154	0.000152588	
7.12738	0.232849	-0.000152588	
7.12524	0.230408	0.000610352	
7.12463	0.229187	0.000152588	
7.12341	0.225525	0	
7.12311	0.223999	0.000610352	
7.12433	0.223389	0.000915527	
7.12463	0.220947	0.000457764	
7.12341	0.218506	0.000762939	
7.12341	0.215759	0.000610352	
7.12372	0.214844	0.000305176	
7.12402	0.213318	0.000152588	
7.12372	0.211182	0.000915527	
7.12219	0.209351	-0.000152588	
7.11975	0.206299	0	
7.11914	0.203857	0.000457764	
7.11945	0.203857	0	
7.11823	0.201111	0.000152588	
7.11853	0.19928	0.000152588	
7.11884	0.196533	0.000915527	
7.11884	0.194397	0.000762939	
7.11761	0.194092	0.000305176	
7.11578	0.19165	0.000915527	
7.11395	0.189209	0.000915527	
7.11334	0.185852	0.000610352	
7.11426	0.184937	-0.000152588	
7.11395	0.184631	0	
7.11426	0.180969	0	
7.11365	0.179749	0	
7.11304	0.176392	0.000457764	
7.1106	0.174561	0.000152588	
7.10999	0.174255	-0.000305176	
7.10968	0.171509	0.0012207	
7.10785	0.169678	0.00137329	
7.10571	0.169373	0.00152588	
7.10388	0.166626	0.000305176	
7.10449	0.164795	0.000915527	
7.1048	0.161743	0	
7.1048	0.159607	0.000457764	
7.1048	0.159607	-0.000152588	
7.10419	0.156555	0.000305176	
7.10419	0.155334	-0.000305176	
7.10114	0.152283	0.000762939	
7.10022	0.150452	0.000305176	
7.09961	0.150146	0.000610352	
7.09869	0.147095	0.000610352	
7.09991	0.144653	0.00106812	
7.09961	0.145264	0.000610352	
7.09991	0.141907	0.000457764	
7.099	0.140686	0.000457764	
7.09656	0.140076	0.000305176	
7.09503	0.137634	0.000152588	
7.09473	0.135803	0.00106812	
7.09473	0.132446	-0.000305176	
7.09503	0.13031	-0.000152588	
7.09442	0.1297	0.000610352	
7.09534	0.127258	-0.000152588	
7.09442	0.125732	0.000152588	
7.09534	0.125427	0.000305176	
7.09473	0.122681	0.000457764	
7.09381	0.12085	0.000610352	
7.0932	0.120239	0	
7.09106	0.117493	0.00106812	
7.09015	0.116272	0.000610352	
7.08954	0.115356	0.000610352	
7.08984	0.112915	-0.000152588	
7.08923	0.110779	-0.000152588	
7.08923	0.107422	0	
7.08984	0.106201	0	
7.08862	0.105896	0	
7.08649	0.103149	0.000305176	
7.08496	0.101013	-0.000305176	
7.08496	0.100708	0.00106812	
7.08374	0.0982666	0.000915527	
7.08099	0.0958252	0.00106812	
7.08008	0.0958252	-0.000152588	
7.08038	0.093689	0.000610352	
7.08038	0.0915527	0.000457764	
7.07947	0.0906372	0.000152588	
7.08008	0.088501	0.000152588	
7.07977	0.0869751	0.000152588	
7.07886	0.0857544	-0.000305176	
7.07611	0.0866699	0.000915527	
7.0752	0.0836182	0.000457764	
7.0752	0.0814819	0.000152588	
7.0752	0.0811768	0.000457764	
7.07428	0.0790405	0.00106812	
7.07489	0.0778198	0.000457764	
7.0755	0.0762939	0.000305176	
7.07367	0.0744629	0.000762939	
7.07092	0.0717163	0.000762939	
7.07062	0.0717163	-0.000152588	
7.0697	0.0698853	0.000915527	
7.07031	0.0671387	-0.000610352	
7.07092	0.0668335	-0.000305176	
7.0697	0.0674438	0.000610352	
7.07031	0.0640869	0	
7.0694	0.062561	0.000305176	
7.0697	0.0622559	0.000305176	
7.07062	0.0595093	0.000915527	
7.07001	0.0570679	0.000762939	
7.06848	0.0570679	0.000305176	
7.06573	0.0576782	0.000915527	
7.06482	0.0546265	0.000762939	
7.06573	0.0527954	0.000305176	
7.06482	0.0521851	-0.000152588	
7.06482	0.0494385	-0.000152588	
7.06482	0.0476074	0.000305176	
7.06482	0.0473022	0.000457764	
7.06299	0.0473022	0.000152588	
7.05811	0.0448608	0.000305176	
7.05536	0.043335	-0.000152588	
7.05505	0.0424194	0.0012207	
7.05505	0.0430298	0.00167847	
7.05505	0.0396729	0.00106812	
7.05536	0.0384521	0.000457764	
7.05505	0.0378418	0.000762939	
7.05505	0.0372314	0.000457764	
7.05566	0.0350952	0.000305176	
7.05566	0.0326538	0.000305176	
7.05505	0.0326538	0.000457764	
7.05444	0.032959	-0.000152588	
7.05139	0.0296021	0.00106812	
7.05078	0.0280762	0.000305176	
7.04956	0.027771	0.000457764	
7.05048	0.027771	0.000457764	
7.05048	0.0256348	0.00137329	
7.04987	0.0238037	0.000305176	
7.04987	0.0228882	0.000762939	
7.04956	0.0228882	0.000610352	
7.04681	0.0201416	0.000610352	
7.04529	0.0186157	0	
7.04529	0.0183105	0.000915527	
7.04346	0.0177002	-0.000305176	
7.04102	0.0180054	0	
7.04102	0.0149536	0.000305176	
7.04071	0.0134277	0.000152588	
7.03918	0.0131226	0.000305176	
7.03979	0.0131226	0.000457764	
7.04071	0.010376	0.000762939	
7.0401	0.00823975	0.000457764	
7.03888	0.00793457	0	
7.03674	0.0088501	0.000762939	
7.03552	0.00854492	0.000457764	
7.03522	0.00549316	0.000305176	
7.03491	0.00366211	0.000305176	
7.03583	0.00305176	0	
7.03491	0.00335693	0.000305176	
7.03613	0.00335693	-0.000152588	
7.034	0.000305176	0.000305176	
7.03094	-0.000915527	0.000152588	
7.03064	-0.00152588	-0.000610352	
7.03064	-0.0012207	0.00106812	
7.03064	-0.000915527	0.0012207	
7.03003	-0.000915527	0.00106812	
7.03033	-0.00427246	0.000305176	
7.03094	-0.00549316	0.000305176	
7.03064	-0.00610352	0.000305176	
7.03033	-0.00579834	0.000457764	
7.03033	-0.00640869	0	
7.03064	-0.00640869	0.000152588	
7.02759	-0.00854492	-0.000152588	
7.02362	-0.0106812	0.000762939	
7.02026	-0.0112915	0.000305176	
7.02148	-0.0112915	0.000152588	
7.02026	-0.0109863	0.000305176	
7.02087	-0.010376	0.000915527	
7.02087	-0.0137329	0.000457764	
7.01965	-0.0149536	0.000610352	
7.01965	-0.0158691	0.000457764	
7.01721	-0.0152588	0.000610352	
7.01538	-0.0158691	0	
7.0163	-0.0161743	0.00106812	
7.01569	-0.0186157	0	
7.01599	-0.0201416	0	
7.0166	-0.020752	0.000152588	
7.0166	-0.020752	0.000305176	
7.01538	-0.0210571	0	
7.01569	-0.0213623	0.000152588	
7.01538	-0.0210571	0.000610352	
7.0163	-0.0238037	0.000610352	
7.01416	-0.0262451	0.000152588	
7.01233	-0.0253296	0.000915527	
7.01172	-0.0262451	0.000762939	
7.0108	-0.0250244	0.000762939	
7.00989	-0.0256348	0	
7.00714	-0.0262451	0	
7.00531	-0.0262451	0.000152588	
7.00592	-0.0286865	0.000305176	
7.00531	-0.0302124	0	
7.00226	-0.0308228	0.000610352	
7.00073	-0.0302124	-0.000457764	
7.00104	-0.0308228	0.000915527	
7.00073	-0.0311279	0.000915527	
7.00104	-0.0308228	0.0012207	
7.00073	-0.0308228	0.000305176	
7.00043	-0.0311279	0.000457764	
7.00043	-0.0326538	0.000305176	
7.00104	-0.0357056	0.000610352	
7.00134	-0.0354004	0	
7.00073	-0.0360107	0.000305176	
6.99982	-0.0357056	-0.000457764	
6.99738	-0.0354004	0.00106812	
6.99554	-0.0357056	0.000152588	
6.99585	-0.0357056	0.000457764	
6.99554	-0.0357056	0.000610352	
6.99524	-0.0384521	0.00106812	
6.99585	-0.0393677	0.000457764	
6.99585	-0.0405884	0.000762939	
6.99402	-0.039978	0.000305176	
6.98853	-0.0396729	0.000457764	
6.98639	-0.0405884	0	
6.98608	-0.0402832	0.00137329	
6.98669	-0.0408936	-0.000305176	
6.98639	-0.0402832	-0.000305176	
6.98639	-0.0405884	0.000152588	
6.98608	-0.0402832	0.000305176	
6.98608	-0.0436401	0	
6.98578	-0.0454712	0.000610352	
6.98608	-0.0448608	0.000610352	
6.98608	-0.0454712	0.000305176	
6.98456	-0.0454712	0	
6.98242	-0.045166	0.000915527	
6.98151	-0.045166	0.000762939	
6.9812	-0.0454712	0.000610352	
6.9812	-0.0454712	0.000457764	
6.9809	-0.0454712	-0.000152588	
6.98059	-0.045166	0.000610352	
6.9812	-0.0454712	0.000152588	
6.97937	-0.0457764	0.000457764	
6.97327	-0.0479126	0.000152588	
6.97144	-0.0506592	-0.000152588	
6.97113	-0.0497437	0.00137329	
6.97144	-0.050354	0.0012207	
6.97174	-0.0506592	0.00152588	
6.97083	-0.050354	0.000762939	
6.97083	-0.050354	0.000305176	
6.97144	-0.0500488	0.000610352	
6.97113	-0.0509644	0.000915527	
6.97083	-0.0500488	0	
6.97052	-0.0506592	0.000305176	
6.9696	-0.050354	-0.000152588	
6.96716	-0.0500488	0.000915527	
6.96625	-0.0497437	0.000457764	
6.96655	-0.0506592	0.000305176	
6.96564	-0.0537109	0.000305176	
6.96625	-0.0543213	0.0012207	
6.96564	-0.0552368	0.000457764	
6.96564	-0.055542	0.000457764	
6.96411	-0.055542	0.000610352	
6.95862	-0.055542	0.000610352	
6.95618	-0.0552368	0	
6.95618	-0.0558472	0.00106812	
6.95587	-0.055542	-0.000457764	
6.95648	-0.055542	0	
6.9574	-0.0552368	0.000152588	
6.95618	-0.055542	0.000152588	
6.95587	-0.055542	0.000152588	
6.95679	-0.0549316	0.000152588	
6.95557	-0.055542	0.000305176	
6.95587	-0.0552368	0.0012207	
6.95526	-0.055542	0.000152588	
6.95282	-0.0552368	0.000762939	
6.9519	-0.0549316	0.000762939	
6.95221	-0.0552368	0.000915527	
6.9516	-0.0585938	0.000305176	
6.9519	-0.0601196	-0.000610352	
6.9519	-0.06073	0.000152588	
6.95129	-0.0604248	0	
6.94977	-0.0604248	0.000457764	
6.94397	-0.0601196	0.000305176	
6.94214	-0.06073	-0.000305176	
6.94244	-0.0604248	0.000762939	
6.94183	-0.0601196	0.00137329	
6.94153	-0.0601196	0.00137329	
6.94214	-0.0601196	0.000762939	
6.94153	-0.0595093	0.000610352	
6.94153	-0.0604248	0.000305176	
6.94153	-0.0598145	0.000762939	
6.94214	-0.0610352	0.000305176	
6.94183	-0.0604248	0.000305176	
6.94122	-0.0604248	-0.000305176	
6.93817	-0.0604248	0.000915527	
6.93756	-0.0604248	0.000305176	
6.93726	-0.0598145	0.000457764	
6.93726	-0.0601196	0.000457764	
6.93695	-0.0598145	0.00106812	
6.93634	-0.0631714	0.000457764	
6.93726	-0.0650024	0.000610352	
6.93542	-0.0646973	0.000610352	
6.92932	-0.0653076	0.000152588	
6.92688	-0.0656128	0.000152588	
6.92688	-0.0646973	0.00106812	
6.92688	-0.0653076	-0.000305176	
6.92657	-0.0650024	-0.000152588	
6.92688	-0.0656128	0.000152588	
6.92688	-0.0653076	0.000457764	
6.92657	-0.0653076	0	
6.92627	-0.0653076	0	
6.92657	-0.0643921	0.000610352	
6.92657	-0.0653076	0.000915527	
6.92566	-0.0653076	0	
6.9223	-0.0646973	0.00106812	
6.922	-0.0653076	0.000152588	
6.922	-0.0653076	0.000915527	
6.9223	-0.0650024	0.000152588	
6.92261	-0.0653076	-0.000305176	
6.922	-0.0656128	0	
6.92261	-0.0656128	0.000305176	
6.92047	-0.0650024	0.000457764	
6.91406	-0.0653076	0.000152588	
6.91193	-0.067749	-0.000610352	
6.91223	-0.0698853	0.000915527	
6.91223	-0.0704956	0.00106812	
6.91223	-0.0704956	0.000915527	
6.91254	-0.0698853	0.000610352	
6.91162	-0.0701904	0.000305176	
6.91223	-0.0698853	0.000305176	
6.91223	-0.0695801	0.000610352	
6.91193	-0.0695801	0.000152588	
6.91162	-0.0692749	-0.000152588	
6.91101	-0.0701904	-0.000457764	
6.90796	-0.0701904	0.0012207	
6.90735	-0.0698853	0	
6.90704	-0.0698853	0.000457764	
6.90735	-0.0704956	0.000457764	
6.90735	-0.0704956	0.000915527	
6.90765	-0.0704956	0.000152588	
6.90704	-0.0695801	0.000457764	
6.90552	-0.0695801	0.000762939	
6.89972	-0.0698853	0.000305176	
6.89758	-0.071106	0.000152588	
6.89758	-0.0726318	0.0012207	
6.89728	-0.0747681	-0.000305176	
6.89636	-0.0747681	-0.000152588	
6.89728	-0.0750732	0.000305176	
6.89728	-0.0747681	0.000457764	
6.89728	-0.0747681	0.000152588	
6.89789	-0.0750732	0	
6.89789	-0.0747681	0.000457764	
6.89789	-0.0747681	0.000762939	
6.89667	-0.0753784	0.000152588	
6.89362	-0.0753784	0.000762939	
6.8927	-0.0744629	0.000457764	
6.89209	-0.0744629	0.000610352	
6.8924	-0.0747681	0.000152588	
6.89209	-0.0747681	-0.000305176	
6.8927	-0.0753784	0.000152588	
6.89209	-0.0753784	0.000305176	
6.88995	-0.0750732	0.000152588	
6.88477	-0.0747681	0.000305176	
6.88232	-0.0787354	-0.000305176	
6.88202	-0.0796509	0.0012207	
6.88293	-0.0799561	0.0012207	
6.88324	-0.0802612	0.00137329	
6.88232	-0.0799561	0.000457764	
6.88232	-0.0802612	0.000305176	
6.88324	-0.0799561	0.000610352	
6.88293	-0.0802612	0.000610352	
6.88202	-0.0796509	0.000152588	
6.88263	-0.0802612	0	
6.88141	-0.0796509	-0.000152588	
6.87897	-0.0799561	0.000915527	
6.87775	-0.0796509	0.000305176	
6.87714	-0.0796509	0.000152588	
6.87775	-0.0796509	0.000762939	
6.87714	-0.0796509	0.00106812	
6.87805	-0.0827026	0.000305176	
6.87744	-0.0848389	0.000762939	
6.875	-0.0848389	0.000762939	
6.87012	-0.0842285	0.000457764	
6.86798	-0.0848389	-0.000152588	
6.86737	-0.0842285	0.0012207	
6.86768	-0.085144	-0.000305176	
6.86829	-0.0848389	-0.000305176	
6.86768	-0.085144	0.000152588	
6.86859	-0.0845337	0.000457764	
6.86768	-0.085144	0.000305176	
6.86768	-0.0845337	0	
6.86798	-0.085144	0.000915527	
6.86737	-0.0842285	0.000762939	
6.86676	-0.085144	0	
6.8634	-0.0875854	0.0012207	
6.8631	-0.0894165	0.000457764	
6.86249	-0.0897217	0.000610352	
6.8631	-0.0900269	-0.000152588	
6.86249	-0.0897217	0.000152588	
6.86279	-0.0894165	0.000762939	
6.86218	-0.0900269	0.000305176	
6.86066	-0.0900269	-0.000152588	
6.85547	-0.0894165	0.000152588	
6.85333	-0.0894165	-0.000610352	
6.85333	-0.0894165	0.000762939	
6.85333	-0.0894165	0.000762939	
6.85272	-0.0894165	0.00167847	
6.85333	-0.0921631	0.000610352	
6.85303	-0.0933838	0.000915527	
6.85333	-0.0939941	0.000457764	
6.85333	-0.0949097	0.000457764	
6.85272	-0.0946045	0.000457764	
6.85272	-0.0946045	0.000305176	
6.8515	-0.0952148	-0.000305176	
6.84906	-0.0942993	0.000915527	
6.84875	-0.0946045	0.000457764	
6.84814	-0.0946045	0.000610352	
6.84662	-0.0942993	0.000457764	
6.84418	-0.0942993	0.000762939	
6.84357	-0.0946045	0.000610352	
6.84265	-0.0976563	0.000305176	
6.84204	-0.0985718	0.000610352	
6.83899	-0.0991821	0	
6.83868	-0.0997925	0	
6.83777	-0.0997925	0.00106812	
6.83777	-0.0994873	-0.000305176	
6.83807	-0.098877	-0.000457764	
6.83807	-0.098877	0	
6.83777	-0.0994873	0.000152588	
6.83807	-0.0994873	0	
6.83868	-0.0997925	0	
6.83838	-0.0994873	0.000610352	
6.83807	-0.102539	0.000915527	
6.83716	-0.104065	0.000152588	
6.83441	-0.103149	0.000915527	
6.83319	-0.10376	0.000762939	
6.83289	-0.104065	0.000457764	
6.83167	-0.10437	-0.000152588	
6.82892	-0.10498	0	
6.82831	-0.10437	0.000152588	
6.828	-0.104065	0	
6.82739	-0.10437	0.000457764	
6.82495	-0.10376	0.000305176	
6.82312	-0.107117	-0.000457764	
6.82373	-0.108337	0.000915527	
6.82373	-0.108948	0.0012207	
6.82343	-0.108643	0.00167847	
6.82343	-0.109253	0.000457764	
6.82281	-0.109253	0.000762939	
6.82434	-0.108948	0.000762939	
6.82343	-0.109558	0.000762939	
6.82343	-0.108948	0.000152588	
6.82343	-0.109558	0.000305176	
6.82068	-0.109253	-0.000305176	
6.81488	-0.108948	0.00106812	
6.81396	-0.111694	0	
6.81335	-0.114136	0.000610352	
6.81335	-0.114136	0.000152588	
6.81305	-0.113831	0.000762939	
6.81305	-0.114136	0.000457764	
6.81274	-0.114136	0.000610352	
6.81183	-0.114441	0.000457764	
6.80969	-0.114441	0.000610352	
6.80878	-0.114136	0	
6.80817	-0.113831	0.00106812	
6.80847	-0.116882	-0.000305176	
6.80878	-0.119019	-0.000305176	
6.80878	-0.119324	0.000305176	
6.80817	-0.119019	0.000152588	
6.80725	-0.119324	0.000152588	
6.80481	-0.118713	0.000152588	
6.80298	-0.118713	0.000305176	
6.80328	-0.119019	0.000915527	
6.80237	-0.119324	0.000457764	
6.79993	-0.119934	0.000915527	
6.79901	-0.118408	0.000915527	
6.79932	-0.12146	0.000457764	
6.7984	-0.123596	0.000152588	
6.7984	-0.124817	-0.000305176	
6.79901	-0.123901	0.000305176	
6.7981	-0.123596	-0.000152588	
6.79749	-0.123596	0.000305176	
6.79535	-0.124207	0.000457764	
6.79382	-0.124207	-0.000610352	
6.79352	-0.123901	0.000915527	
6.7926	-0.124207	0.00152588	
6.78955	-0.126648	0.00106812	
6.78955	-0.129089	0.000457764	
6.78864	-0.129089	0.000762939	
6.78925	-0.129089	0.000610352	
6.78864	-0.128784	0.000610352	
6.78864	-0.129089	0	
6.78925	-0.128784	0	
6.78802	-0.129395	-0.000610352	
6.78467	-0.128784	0.00137329	
6.78375	-0.128784	0	
6.78375	-0.129089	0.000305176	
6.78375	-0.131836	0.000305176	
6.78406	-0.133972	0.000762939	
6.78375	-0.133972	0.000610352	
6.78375	-0.133362	0.000915527	
6.78162	-0.133972	0.000762939	
6.77612	-0.133972	0.000915527	
6.77429	-0.133362	0	
6.77429	-0.133972	0.00106812	
6.77429	-0.133972	-0.000152588	
6.77399	-0.133667	-0.000305176	
6.77429	-0.137024	0.000305176	
6.77399	-0.137939	0.000610352	
6.77399	-0.138855	-0.000152588	
6.77399	-0.13855	0.000305176	
6.77429	-0.138855	0.000305176	
6.77338	-0.138245	0.000762939	
6.77246	-0.13855	0.000152588	
6.76941	-0.13916	0.0012207	
6.7688	-0.138855	0.000610352	
6.7688	-0.13855	0.000610352	
6.7688	-0.141296	0	
6.7691	-0.143433	-0.000152588	
6.7691	-0.143433	0	
6.76941	-0.143127	0.000152588	
6.76636	-0.143433	0.000305176	
6.76178	-0.143127	-0.000152588	
6.75934	-0.143738	0	
6.75934	-0.143433	0.000610352	
6.75903	-0.143433	0.000915527	
6.75934	-0.144348	0.00106812	
6.75903	-0.146484	0.000610352	
6.75934	-0.148315	0.000457764	
6.75934	-0.148621	0.000610352	
6.75934	-0.148621	0.000457764	
6.75873	-0.148315	0.000305176	
6.75934	-0.148621	0.000152588	
6.75781	-0.148926	-0.000305176	
6.75507	-0.147705	0.000915527	
6.75446	-0.148621	0	
6.75476	-0.148621	0.000152588	
6.75323	-0.151672	0.000305176	
6.75018	-0.153503	0.000762939	
6.74957	-0.152893	0.000610352	
6.74896	-0.153809	0.000915527	
6.74774	-0.153809	0.000610352	
6.7453	-0.153503	0.000762939	
6.74438	-0.153503	0	
6.745	-0.152893	0.000915527	
6.74469	-0.153198	-0.000305176	
6.74408	-0.153198	-0.000305176	
6.745	-0.153503	0.000305176	
6.74469	-0.15625	0.000915527	
6.745	-0.157776	0.000152588	
6.74469	-0.158386	-0.000152588	
6.74438	-0.157776	0.000610352	
6.74438	-0.158386	0.000762939	
6.74225	-0.157776	0	
6.73767	-0.157776	0.000915527	
6.73523	-0.158997	0.000915527	
6.73431	-0.158386	0.000762939	
6.73462	-0.158081	0.000152588	
6.73462	-0.160828	-0.000152588	
6.73431	-0.162354	0	
6.73492	-0.162964	-0.000152588	
6.7334	-0.162354	0.000305176	
6.73035	-0.163269	0.000152588	
6.72974	-0.162964	-0.000305176	
6.72913	-0.162354	0.00106812	
6.72852	-0.163269	0.00106812	
6.72607	-0.163269	0.0012207	
6.72424	-0.162964	0.000915527	
6.72455	-0.162964	0.000305176	
6.72516	-0.166321	0.000762939	
6.72394	-0.167542	0.000762939	
6.72424	-0.167847	0.000915527	
6.72455	-0.168152	0.000152588	
6.72363	-0.167847	-0.000305176	
6.72089	-0.167542	0.00106812	
6.72058	-0.168152	0.000152588	
6.71906	-0.167847	0.000457764	
6.71936	-0.167847	0.000305176	
6.71997	-0.167542	0.000915527	
6.71997	-0.167847	0.000610352	
6.71967	-0.170593	0.000457764	
6.71753	-0.172729	0.000762939	
6.71204	-0.173035	0.000610352	
6.70929	-0.17334	0	
6.70959	-0.172729	0.0012207	
6.7099	-0.17334	-0.000152588	
6.71051	-0.17334	-0.000457764	
6.71051	-0.172729	0	
6.71021	-0.173035	0.000762939	
6.70959	-0.17334	0.000152588	
6.71021	-0.173035	0	
6.70929	-0.173645	0.000915527	
6.71021	-0.176086	0.000762939	
6.70898	-0.178223	0.000305176	
6.70593	-0.177917	0.0012207	
6.70532	-0.178223	0.000915527	
6.70471	-0.177307	0.000610352	
6.70563	-0.177612	0	
6.70441	-0.177612	0.000152588	
6.70532	-0.177917	0.000305176	
6.70471	-0.177612	-0.000152588	
6.70258	-0.177612	0.000457764	
6.69739	-0.178528	0.000610352	
6.69617	-0.177917	-0.000457764	
6.69525	-0.177612	0.00106812	
6.69495	-0.180054	0.0012207	
6.69464	-0.18219	0.00152588	
6.69464	-0.18219	0.000457764	
6.69525	-0.1828	0.000305176	
6.69495	-0.182495	0.000610352	
6.69495	-0.1828	0.000457764	
6.69525	-0.183105	0.000305176	
6.69495	-0.183411	0	
6.69281	-0.183105	-0.000305176	
6.68762	-0.1828	0.00106812	
6.68579	-0.183105	0.000305176	
6.6861	-0.1828	0.000305176	
6.68488	-0.183105	0.000457764	
6.68518	-0.185852	0.000762939	
6.68488	-0.187378	0.000762939	
6.68549	-0.187683	0.000762939	
6.68427	-0.187683	0.000457764	
6.68091	-0.187683	0.000762939	
6.6803	-0.187378	-0.000152588	
6.6806	-0.187683	0.00106812	
6.68121	-0.187683	-0.000305176	
6.67969	-0.187378	-0.000457764	
6.6803	-0.187378	0.000305176	
6.6803	-0.187378	0.000915527	
6.67999	-0.187378	0.000152588	
6.68091	-0.187683	0.000305176	
6.68091	-0.187378	0.000610352	
6.6803	-0.190735	0.000915527	
6.67755	-0.191956	0	
6.67175	-0.192871	0.00106812	
6.67114	-0.192261	0.000610352	
6.67053	-0.191956	0.000305176	
6.66992	-0.192261	0.000152588	
6.67053	-0.192261	-0.000152588	
6.67084	-0.192566	0.000152588	
6.67053	-0.192261	0.000152588	
6.66992	-0.192261	0.000457764	
6.66656	-0.192566	0.000305176	
6.66534	-0.193176	-0.000457764	
6.66565	-0.192566	0.000915527	
6.66382	-0.192871	0.00137329	
6.66199	-0.195007	0.00152588	
6.66077	-0.197144	0.000305176	
6.66077	-0.197754	0.000610352	
6.66016	-0.197449	0.000152588	
6.66016	-0.197449	0.000915527	
6.66016	-0.197449	0.000305176	
6.66077	-0.197449	0	
6.65955	-0.197754	-0.000610352	
6.6568	-0.197449	0.0012207	
6.65558	-0.197144	0.000305176	
6.65619	-0.197754	0	
6.65466	-0.197449	0.000457764	
6.65558	-0.196838	0.000762939	
6.65527	-0.197754	0.000305176	
6.65558	-0.197144	0.000610352	
6.65222	-0.197449	0.000610352	
6.64764	-0.19989	0.000457764	
6.64581	-0.202332	0.000152588	
6.6452	-0.202332	0.0012207	
6.6452	-0.202942	-0.000152588	
6.64551	-0.202942	-0.000305176	
6.64612	-0.202637	0.000305176	
6.64581	-0.202332	0.000610352	
6.64551	-0.202026	-0.000152588	
6.64642	-0.202026	-0.000152588	
6.64551	-0.202026	0.000305176	
6.64612	-0.201721	0.000915527	
6.64429	-0.202332	0	
6.64185	-0.202026	0.00106812	
6.64124	-0.202332	0.000305176	
6.64063	-0.201721	0.000610352	
6.64063	-0.201721	0.000152588	
6.64063	-0.202026	0.000152588	
6.64093	-0.205994	0.000152588	
6.64032	-0.20752	0	
6.63818	-0.206909	0.000305176	
6.633	-0.207825	0.000305176	
6.63116	-0.207825	-0.000305176	
6.63147	-0.207825	0.000915527	
6.63086	-0.20752	0.00106812	
6.63116	-0.206909	0.00152588	
6.63055	-0.207214	0.000610352	
6.63116	-0.20752	0.000457764	
6.63116	-0.207825	0.000457764	
6.63086	-0.206604	0.000915527	
6.63116	-0.206909	0.000152588	
6.63086	-0.20752	0.000457764	
6.62994	-0.20752	-0.000305176	
6.6275	-0.207214	0.00106812	
6.62628	-0.20813	0.000305176	
6.62598	-0.209961	0.000152588	
6.62567	-0.211792	0.000610352	
6.62567	-0.212402	0.000915527	
6.62598	-0.212097	0.000610352	
6.62628	-0.211792	0.000305176	
6.62354	-0.212097	0.000457764	
6.61804	-0.212097	0.000457764	
6.61621	-0.212097	0	
6.61621	-0.211487	0.000610352	
6.61652	-0.212402	0	
6.61652	-0.212402	-0.000610352	
6.61652	-0.212097	0.000152588	
6.61621	-0.212097	0.000305176	
6.61621	-0.212097	0.000152588	
6.6153	-0.212402	0	
6.61621	-0.211792	0.000457764	
6.61621	-0.212708	0.000457764	
6.61469	-0.212402	0	
6.61194	-0.212097	0.00106812	
6.61133	-0.214539	0.000457764	
6.61072	-0.21698	0.000915527	
6.6098	-0.21759	0.000152588	
6.60767	-0.217285	-0.000152588	
6.60614	-0.216675	0	
6.60583	-0.21698	0.000305176	
6.60522	-0.21759	0.000152588	
6.60248	-0.216675	0	
6.60095	-0.21759	0	
6.60095	-0.21759	0.0012207	
6.60126	-0.216675	0.0012207	
6.60156	-0.216675	0.00152588	
6.60065	-0.21698	0.000457764	
6.60156	-0.21698	0.000305176	
6.60156	-0.217285	0.000305176	
6.60095	-0.216675	0.000762939	
6.60095	-0.216675	0.000152588	
6.60156	-0.21698	0	
6.59973	-0.217285	-0.000610352	
6.5979	-0.21698	0.000915527	
6.59698	-0.220947	0.000457764	
6.59607	-0.221252	0.000152588	
6.59515	-0.221558	0.000762939	
6.59271	-0.222473	0.000457764	
6.59149	-0.223083	0.000915527	
6.59119	-0.221863	0.000457764	
6.58997	-0.222168	0.000915527	
6.58813	-0.222168	0.000457764	
6.58691	-0.221558	-0.000152588	
6.58661	-0.222473	0.000915527	
6.5863	-0.221558	-0.000152588	
6.5863	-0.221863	-0.000457764	
6.5863	-0.221863	0.000305176	
6.5863	-0.222473	0.000457764	
6.5863	-0.221863	0.000305176	
6.58661	-0.222168	0	
6.58691	-0.221863	0	
6.58661	-0.222473	0.000457764	
6.58569	-0.222473	0.000457764	
6.58234	-0.222778	0.00106812	
6.58173	-0.221863	0.000610352	
6.58203	-0.222473	0.000762939	
6.58142	-0.221863	-0.000152588	
6.58112	-0.224609	0.000152588	
6.58112	-0.22644	-0.000305176	
6.58173	-0.227051	0	
6.57959	-0.226746	0.000152588	
6.57379	-0.22644	0.000152588	
6.57135	-0.226746	-0.000457764	
6.57227	-0.226135	0.0012207	
6.57135	-0.226135	0.0012207	
6.57135	-0.227051	0.00167847	
6.57135	-0.226746	0.000457764	
6.57166	-0.227051	0.000610352	
6.57135	-0.22644	0.000457764	
6.57135	-0.226746	0.000762939	
6.57196	-0.22644	0.000305176	
6.57166	-0.227661	0	
6.57043	-0.227051	-0.000457764	
6.56769	-0.226746	0.0012207	
6.56677	-0.226746	0.000305176	
6.56708	-0.227356	0.000152588	
6.56647	-0.226746	0.000457764	
6.56616	-0.226746	0.000457764	
6.56647	-0.226135	0.000762939	
6.56616	-0.227051	0.000762939	
6.56464	-0.227051	0.000915527	
6.55884	-0.22644	0.000762939	
6.55731	-0.227356	-0.000152588	
6.5564	-0.230408	0.00106812	
6.55701	-0.231628	-0.000152588	
6.5567	-0.231628	-0.000610352	
6.5564	-0.231628	0.000152588	
6.5564	-0.232544	0.000457764	
6.5564	-0.231628	-0.000152588	
6.55762	-0.232544	0	
6.55701	-0.231628	0.000152588	
6.55609	-0.231628	0.000457764	
6.5564	-0.231934	0.000152588	
6.55243	-0.232849	0.000915527	
6.55182	-0.232239	0.000762939	
6.55243	-0.231628	0.000915527	
6.55273	-0.232239	0	
6.55182	-0.231628	0.000305176	
6.55212	-0.231323	0	
6.55212	-0.231628	0.000152588	
6.54999	-0.231934	0.000152588	
6.54358	-0.231628	-0.000152588	
6.54236	-0.231628	-0.000305176	
6.54144	-0.231934	0.000762939	
6.54236	-0.231934	0.0012207	
6.54175	-0.232239	0.000915527	
6.54205	-0.231934	0.000457764	
6.54236	-0.231934	0.000305176	
6.54175	-0.231323	0.000457764	
6.54266	-0.232239	0.000457764	
6.54205	-0.231934	0.000457764	
6.54205	-0.231934	0	
6.54175	-0.231628	-0.000762939	
6.5387	-0.231934	0.00137329	
6.53717	-0.232239	0.000152588	
6.53687	-0.231323	0.000610352	
6.53687	-0.231934	0.000305176	
6.53809	-0.231628	0.000762939	
6.53687	-0.231628	0.000762939	
6.53625	-0.231934	0.000305176	
6.53564	-0.231628	0.000610352	
6.5332	-0.231934	0.000762939	
6.53229	-0.231628	-0.000152588	
6.53229	-0.234375	0.0012207	
6.53259	-0.236206	-0.000152588	
6.53198	-0.236511	-0.000305176	
6.53229	-0.235901	0.000152588	
6.53229	-0.235901	0.000457764	
6.53107	-0.236511	0	
6.52863	-0.235901	0.000305176	
6.52679	-0.235901	0.000305176	
6.5271	-0.236206	0.000915527	
6.52588	-0.235901	0	
6.52374	-0.237122	0.000915527	
6.52191	-0.236206	0.000457764	
6.52161	-0.236816	0.000610352	
6.52222	-0.236206	-0.000152588	
6.52191	-0.236816	0.000305176	
6.52222	-0.236206	0	
6.52283	-0.236816	0	
6.5213	-0.236206	0.000610352	
6.51855	-0.236511	0	
6.51733	-0.236816	-0.000305176	
6.51794	-0.237122	0.000610352	
6.51733	-0.236816	0.0012207	
6.51733	-0.235901	0.00106812	
6.51733	-0.236816	0.000457764	
6.51764	-0.236816	0.000610352	
6.51733	-0.237122	0.000152588	
6.51733	-0.236816	0.000610352	
6.51703	-0.236511	0.000457764	
6.51703	-0.236511	0	
6.51459	-0.236816	-0.000915527	
6.5097	-0.236511	0.000915527	
6.50848	-0.236511	0.000457764	
6.50696	-0.236206	0.000762939	
6.50787	-0.236206	0	
6.50726	-0.236816	0.000762939	
6.50726	-0.236511	0.00106812	
6.50787	-0.236816	0.000610352	
6.50635	-0.236206	0.000915527	
6.5033	-0.236816	0.00106812	
6.50269	-0.236511	-0.000152588	
6.50208	-0.236511	0.00137329	
6.50238	-0.236511	-0.000152588	
6.50238	-0.236511	-0.000152588	
6.50299	-0.236816	0.000305176	
6.50238	-0.236511	0.000610352	
6.50269	-0.236511	-0.000305176	
6.50238	-0.233765	0.000305176	
6.50238	-0.232239	0.000610352	
6.50208	-0.231628	0.000305176	
6.50146	-0.232239	0.000305176	
6.49841	-0.231628	0.000915527	
6.4978	-0.232239	0.000305176	
6.4975	-0.231934	0.000610352	
6.4975	-0.231323	0.000152588	
6.49719	-0.231934	0.000305176	
6.49658	-0.232239	0	
6.4975	-0.231934	0.000610352	
6.49506	-0.231934	0.000305176	
6.48987	-0.231934	0.000152588	
6.48743	-0.231323	-0.000152588	
6.48773	-0.231018	0.000915527	
6.48773	-0.231018	0.00106812	
6.48773	-0.231628	0.00137329	
6.48743	-0.231018	0.000915527	
6.48804	-0.231628	0.000305176	
6.48743	-0.231934	0.000610352	
6.48743	-0.232544	0.000915527	
6.48712	-0.231934	0.000457764	
6.48712	-0.232239	0.000152588	
6.48621	-0.231934	-0.000305176	
6.48315	-0.231628	0.0012207	
6.48315	-0.228882	0.000305176	
6.48254	-0.227356	0.000305176	
6.48193	-0.226746	0.000457764	
6.48315	-0.227661	0.000762939	
6.48254	-0.22644	0.000762939	
6.48315	-0.227051	0.000305176	
6.48132	-0.226746	0.000762939	
6.47888	-0.226746	0.00106812	
6.47766	-0.22644	-0.000152588	
6.47797	-0.227051	0.000915527	
6.47675	-0.227051	-0.000152588	
6.47461	-0.226746	-0.000610352	
6.47308	-0.22644	0.000457764	
6.47369	-0.223999	0.000610352	
6.47308	-0.222473	0.000152588	
6.47339	-0.221558	0	
6.47339	-0.221863	0.000305176	
6.47308	-0.222168	0.000610352	
6.47125	-0.222168	0	
6.46942	-0.222168	0.000915527	
6.46851	-0.222168	0.000610352	
6.4682	-0.222168	0.000457764	
6.4679	-0.222473	0	
6.46851	-0.218811	0.000305176	
6.4682	-0.217285	-0.000457764	
6.46759	-0.217285	0.000457764	
6.46667	-0.217285	0.000457764	
6.46393	-0.216675	0.000305176	
6.46362	-0.218201	-0.000152588	
6.46362	-0.216675	0.000915527	
6.4624	-0.216675	0.00106812	
6.46362	-0.214233	0.00152588	
6.46301	-0.213318	0.000762939	
6.46301	-0.211487	0.000305176	
6.46332	-0.212708	0.000610352	
6.46362	-0.211792	0.000762939	
6.46301	-0.211487	0.000762939	
6.46362	-0.209351	-0.000152588	
6.4621	-0.20752	-0.000305176	
6.45996	-0.206909	0.00106812	
6.45813	-0.207214	0.000305176	
6.45782	-0.20752	0.000305176	
6.45691	-0.207214	0.000305176	
6.45386	-0.204163	0.000915527	
6.45386	-0.202637	0.000915527	
6.45355	-0.202332	0.000762939	
6.45233	-0.202332	0.000915527	
6.44897	-0.202026	0.000762939	
6.44867	-0.198975	-0.000152588	
6.44836	-0.197754	0.0012207	
6.44836	-0.197449	-0.000305176	
6.44775	-0.197754	-0.000610352	
6.44836	-0.194092	0.000305176	
6.44836	-0.192871	0.000762939	
6.44775	-0.192261	0	
6.44806	-0.192566	0.000152588	
6.44806	-0.192261	0.000305176	
6.44836	-0.189514	0.000762939	
6.44653	-0.187378	0	
6.4447	-0.187683	0.00106812	
6.44379	-0.187073	0.000915527	
6.44287	-0.184937	0.000457764	
6.44287	-0.183411	0	
6.44348	-0.182495	0.000152588	
6.44257	-0.179749	0	
6.44348	-0.178223	0	
6.44226	-0.177917	0.000152588	
6.43951	-0.178223	0.000152588	
6.4386	-0.174866	-0.000152588	
6.4386	-0.173645	0.000915527	
6.43738	-0.17334	0.00106812	
6.43463	-0.170288	0.00106812	
6.43402	-0.167542	0.000610352	
6.43372	-0.168152	0.000457764	
6.43341	-0.16449	0.000762939	
6.43402	-0.162964	0.000152588	
6.43311	-0.162354	0.000762939	
6.43372	-0.160217	0.000305176	
6.43219	-0.158997	-0.000152588	
6.42914	-0.158081	0.00106812	
6.42853	-0.154419	0.000457764	
6.42883	-0.153809	0.000305176	
6.42853	-0.152588	0.000152588	
6.42883	-0.150452	0.000610352	
6.42853	-0.148621	0.000762939	
6.42853	-0.148315	0.000610352	
6.42761	-0.145874	0.000457764	
6.42517	-0.143738	0.000457764	
6.42426	-0.144043	-0.000152588	
6.42426	-0.140381	0.000915527	
6.42426	-0.13916	-0.000152588	
6.42395	-0.135498	-0.000305176	
6.42365	-0.134583	0.000457764	
6.42365	-0.133667	0.000610352	
6.42426	-0.13092	0	
6.42365	-0.129089	0.000152588	
6.42303	-0.126038	0.000152588	
6.42303	-0.123901	0.000610352	
6.42181	-0.12146	0.000152588	
6.41968	-0.119324	0.000915527	
6.41876	-0.119019	0.000762939	
6.41876	-0.115662	0.000762939	
6.41815	-0.114746	0	
6.41876	-0.111694	0.000457764	
6.41815	-0.109253	0	
6.41876	-0.106201	0	
6.41724	-0.10498	0.000457764	
6.41541	-0.100708	0.000457764	
6.41388	-0.100098	-0.000305176	
6.41388	-0.0985718	0.000915527	
6.41235	-0.0967407	0.00106812	
6.41022	-0.0949097	0.00137329	
6.40869	-0.0912476	0.000610352	
6.409	-0.0900269	0.000457764	
6.409	-0.0866699	0.000610352	
6.40961	-0.0848389	0.000457764	
6.40869	-0.0814819	0.000457764	
6.409	-0.0802612	0	
6.40686	-0.0775146	-0.000152588	
6.40533	-0.0750732	0.000915527	
6.40411	-0.0717163	0.000152588	
6.40381	-0.0704956	0.000457764	
6.4032	-0.0665283	0.000610352	
6.40411	-0.0656128	0.000610352	
6.40411	-0.0622559	0.000610352	
6.40411	-0.0604248	0.000610352	
6.4035	-0.0570679	0.000305176	
6.40411	-0.0524902	0.000762939	
6.40381	-0.0509644	-0.000305176	
6.40442	-0.0476074	0.000915527	
6.40289	-0.0457764	0.000152588	
6.40045	-0.0421143	-0.000305176	
6.39893	-0.0408936	0	
6.39893	-0.0378418	0.000915527	
6.39862	-0.0363159	-0.000152588	
6.39893	-0.0326538	0.000152588	
6.39893	-0.0308228	0.000152588	
6.39923	-0.027771	0.000457764	
6.39771	-0.0238037	0.000305176	
6.39496	-0.0210571	0.0012207	
6.39496	-0.0177002	0.000152588	
6.39496	-0.0164795	0.00106812	
6.39404	-0.0125122	0.000457764	
6.39435	-0.0112915	0	
6.39404	-0.00793457	-0.000152588	
6.39465	-0.00335693	0.000152588	
6.39252	-0.00152588	0.000152588	
6.39038	0.0012207	0.000305176	
6.38916	0.00366211	0	
6.38885	0.00640869	0.00137329	
6.38885	0.010376	0.0012207	
6.38947	0.0128174	0.00137329	
6.38916	0.0161743	0.000915527	
6.38947	0.0180054	0.000457764	
6.38794	0.0216675	0.000457764	
6.3858	0.0256348	0.000762939	
6.38428	0.027771	0.000457764	
6.38458	0.0311279	0.000152588	
6.38245	0.0323486	-0.000610352	
6.38031	0.0357056	0.000762939	
6.3797	0.0408936	0.000457764	
6.37939	0.0424194	0.000305176	
6.37909	0.0457764	0.000610352	
6.37909	0.050354	0.000305176	
6.37939	0.0524902	0.000915527	
6.3797	0.0552368	0.000305176	
6.37787	0.0579834	0.000457764	
6.37573	0.0604248	0.000305176	
6.37451	0.0640869	-0.000305176	
6.37512	0.0668335	0.00137329	
6.37421	0.0698853	-0.000152588	
6.37512	0.0750732	-0.000152588	
6.3739	0.0765991	0	
6.3739	0.0805664	0.000457764	
6.37421	0.0814819	0	
6.37512	0.0839233	0.000152588	
6.37482	0.088501	0	
6.37421	0.090332	0.000610352	
6.37329	0.0942993	0	
6.36993	0.098877	0.0012207	
6.36963	0.100403	0.000457764	
6.36932	0.10437	0.000762939	
6.36871	0.105286	0.000305176	
6.36902	0.108948	0.000305176	
6.36932	0.113525	-0.000152588	
6.36902	0.115967	0.000457764	
6.36871	0.118713	0.000152588	
6.36505	0.122375	0.000152588	
6.36444	0.125122	-0.000152588	
6.36444	0.128784	0.00137329	
6.36414	0.132751	0.000610352	
6.36505	0.134888	0.00106812	
6.36505	0.138855	0.000762939	
6.36475	0.139771	0.000457764	
6.36414	0.142822	0.000457764	
6.36414	0.14801	0.000915527	
6.36444	0.150757	0.000762939	
6.36505	0.153198	0	
6.36261	0.157166	-0.000457764	
6.36017	0.159302	0.0012207	
6.35986	0.162354	0.000762939	
6.35925	0.16449	0.000457764	
6.35925	0.167542	0.000610352	
6.35986	0.172119	0.000610352	
6.35956	0.174561	0.000915527	
6.35956	0.177917	0.000305176	
6.35834	0.18219	0.000457764	
6.35559	0.184021	0.000762939	
6.35468	0.186768	-0.000305176	
6.35437	0.189209	0.00106812	
6.35437	0.191956	0	
6.35468	0.196228	0.000152588	
6.35559	0.198059	0.000152588	
6.35468	0.202026	0.000305176	
6.35376	0.206909	0.000305176	
6.35071	0.20874	0.000152588	
6.3501	0.211792	0.000152588	
6.34918	0.213623	0.000610352	
6.34979	0.216675	0	
6.3501	0.221252	0.00106812	
6.34949	0.223083	0.000152588	
6.34979	0.22644	0.000762939	
6.34796	0.227356	0.000152588	
6.34613	0.231628	0.000457764	
6.3443	0.236206	-0.000305176	
6.3443	0.238037	0.000457764	
6.34277	0.241394	0.000457764	
6.34094	0.24292	0.000610352	
6.33942	0.246582	-0.000152588	
6.34033	0.248108	0.000762939	
6.34003	0.250854	0.000610352	
6.33942	0.255432	0.00167847	
6.33881	0.257263	0.000457764	
6.34064	0.26062	0.000305176	
6.33942	0.261841	0.000762939	
6.34003	0.265503	0.000457764	
6.33942	0.267029	0.000915527	
6.33942	0.270996	-0.000305176	
6.33942	0.271912	-0.000610352	
6.33972	0.275879	0.000762939	
6.33972	0.280762	0.000305176	
6.33972	0.281982	0.000152588	
6.3382	0.285339	0.000457764	
6.33575	0.287781	0.000915527	
6.33545	0.290222	0.0012207	
6.33514	0.292053	0.000762939	
6.33484	0.295715	0.000610352	
6.33514	0.296936	0.000915527	
6.33453	0.299988	-0.000152588	
6.33484	0.301819	0.0012207	
6.33362	0.305176	0.000152588	
6.33057	0.306396	-0.000152588	
6.32996	0.310364	0.000152588	
6.32965	0.311584	0.000457764	
6.32935	0.314941	-0.000152588	
6.32996	0.316162	0	
6.33026	0.320129	0.000305176	
6.33026	0.321655	0.000457764	
6.32874	0.324097	0	
6.32629	0.326538	0.000915527	
6.32538	0.32959	0.000457764	
6.32568	0.330811	0.000457764	
6.32507	0.334473	0.000152588	
6.32507	0.335693	0.000152588	
6.32477	0.339661	-0.000457764	
6.32507	0.341187	0.000305176	
6.32416	0.343323	0.000305176	
6.32141	0.345459	0	
6.32019	0.345764	-0.000152588	
6.32019	0.349426	0.000457764	
6.3208	0.350037	0.000762939	
6.3205	0.354004	0.0012207	
6.3208	0.35553	0.000610352	
6.31958	0.358887	0.000457764	
6.3205	0.360413	0.000457764	
6.32019	0.363464	0.000915527	
6.31989	0.365295	0.000610352	
6.31927	0.366211	0	
6.31927	0.368958	-0.000457764	
6.31683	0.370178	0.0012207	
6.31561	0.37323	0.000305176	
6.3147	0.375366	0.000305176	
6.31561	0.375671	0.000305176	
6.31561	0.378113	0.000610352	
6.31531	0.380249	0.00106812	
6.31531	0.380859	0.000610352	
6.31439	0.382996	0.000610352	
6.31104	0.384827	0.000762939	
6.31165	0.388489	-0.000152588	
6.31042	0.390015	0.000915527	
6.31012	0.390015	0	
6.31042	0.392456	-0.000457764	
6.31073	0.394592	0	
6.31104	0.395203	0.000762939	
6.31073	0.397949	0.000152588	
6.31042	0.39917	0.000457764	
6.31012	0.39978	0.000305176	
6.31012	0.402527	0.000610352	
6.3092	0.405273	0.000457764	
6.30646	0.404663	0.000915527	
6.30554	0.40741	0.000457764	
6.30585	0.40863	0.000152588	
6.30554	0.410461	0.000305176	
6.30585	0.412903	0.000152588	
6.30554	0.414429	-0.000152588	
6.30554	0.414429	0.000152588	
6.30432	0.415344	0.000305176	
6.30219	0.417786	0	
6.30096	0.419312	-0.000457764	
6.30005	0.420227	0.000762939	
6.30096	0.420532	0.000762939	
6.30066	0.422668	0.00106812	
6.30035	0.424805	0.000610352	
6.30035	0.424805	0.000457764	
6.30066	0.424194	0.000457764	
6.30127	0.427246	0.000152588	
6.30066	0.428772	0.00106812	
6.30066	0.429688	0.000152588	
6.29883	0.429993	-0.000457764	
6.29669	0.432129	0.00106812	
6.29547	0.433655	0.000305176	
6.29608	0.434875	0.000457764	
6.29578	0.43457	0.000152588	
6.29608	0.43457	0.000762939	
6.29578	0.437622	0.0012207	
6.29517	0.439148	0.000610352	
6.29639	0.439453	0.000457764	
6.29547	0.439453	0.000762939	
6.29517	0.439453	-0.000152588	
6.29578	0.4422	0.00137329	
6.29425	0.443726	0.000152588	
6.29181	0.444946	-0.000305176	
6.29059	0.444336	0	
6.29089	0.444031	0.000457764	
6.29089	0.444031	-0.000152588	
6.29059	0.447083	0	
6.2912	0.448608	0.000305176	
6.29089	0.450134	0.000457764	
6.28967	0.449219	0.000152588	
6.28723	0.448608	0.00106812	
6.28571	0.448914	0.000305176	
6.28601	0.448608	0.000152588	
6.28601	0.452271	0.000457764	
6.28632	0.453796	0	
6.28601	0.454407	-0.000152588	
6.28571	0.454102	0.000152588	
6.28632	0.454407	0.000457764	
6.28571	0.454407	0.000305176	
6.28571	0.453796	-0.000152588	
6.28571	0.454407	0.00106812	
6.28418	0.453186	0.0012207	
6.28174	0.454102	0.0012207	
6.28082	0.454102	0.000610352	
6.28082	0.454712	0.000305176	
6.28052	0.456238	0.000762939	
6.28143	0.458984	0.000305176	
6.28113	0.458679	0.000305176	
6.28113	0.459595	-0.000152588	
6.2793	0.458984	-0.000457764	
6.27686	0.45929	0.0012207	
6.27594	0.45929	0.000152588	
6.27594	0.458984	0.000457764	
6.27594	0.45929	0.000305176	
6.27594	0.458374	0.000457764	
6.27594	0.458679	0.000915527	
6.27625	0.45929	0.000457764	
6.27502	0.459595	0.000610352	
6.27228	0.45929	0.000457764	
6.27106	0.459595	-0.000305176	
6.27106	0.458984	0.0012207	
6.27075	0.458984	0.000305176	
6.27075	0.458679	-0.000610352	
6.27075	0.458374	0.000305176	
6.27106	0.458984	0.000305176	
6.27136	0.45929	0	
6.27106	0.458679	0.000610352	
6.27136	0.45929	0.000152588	
6.27075	0.458984	0.000762939	
6.26984	0.458984	0	
6.26709	0.458679	0.00106812	
6.26617	0.458984	0.000915527	
6.26587	0.458984	0.000305176	
6.26617	0.455627	0.000305176	
6.26587	0.454712	0.000305176	
6.26617	0.453491	0	
6.26556	0.454102	0	
6.26495	0.453186	0.000610352	
6.26221	0.454102	-0.000152588	
6.26129	0.453796	-0.000152588	
6.26129	0.454102	0.000762939	
6.26099	0.453491	0.000915527	
6.26068	0.454712	0.0012207	
6.26129	0.454407	0.000915527	
6.26099	0.453796	0.000152588	
6.26129	0.450745	0.00106812	
6.26129	0.450439	0.000457764	
6.26099	0.449219	0.000457764	
6.2616	0.449219	0	
6.26099	0.449219	-0.000305176	
6.26129	0.449219	0.000915527	
6.26068	0.449524	0	
6.26129	0.449219	0.000610352	
6.25977	0.446167	0.000305176	
6.25732	0.444336	0	
6.2558	0.444641	0.000915527	
6.25549	0.444336	0.000762939	
6.2558	0.444336	0.000610352	
6.25641	0.444336	0.000457764	
6.2558	0.440979	0	
6.2561	0.439453	0.00137329	
6.25519	0.439758	0.000305176	
6.25549	0.439453	-0.000152588	
6.2558	0.439453	0.000152588	
6.2561	0.439453	0.000610352	
6.25519	0.436707	-0.000152588	
6.25214	0.434875	0.000457764	
6.25153	0.434265	0.000457764	
6.25092	0.434875	0.000762939	
6.25122	0.43396	0	
6.25153	0.431824	0.00137329	
6.25092	0.429688	0.000457764	
6.25122	0.429382	0.000305176	
6.25122	0.429688	0.000152588	
6.25	0.429077	0.000152588	
6.25153	0.427246	-0.000152588	
6.25092	0.424805	0.000305176	
6.25061	0.4245	0.000457764	
6.24786	0.423889	-0.000152588	
6.24634	0.421143	-0.000152588	
6.24634	0.420227	0.000915527	
6.24634	0.419312	0.000915527	
6.24634	0.418701	0.0012207	
6.24634	0.41748	0.00106812	
6.24603	0.415649	0.000152588	
6.24634	0.414429	0.000610352	
6.24603	0.415344	0.000457764	
6.24634	0.411682	0.000305176	
6.24603	0.410767	0	
6.24512	0.409241	-0.000305176	
6.24237	0.410156	0.000762939	
6.24207	0.407104	0	
6.24146	0.405579	0.000305176	
6.24176	0.404968	0.000457764	
6.24084	0.405273	0.000610352	
6.24176	0.402222	0.000915527	
6.24146	0.400696	0.000457764	
6.24084	0.39978	0.000457764	
6.24084	0.397034	0.000457764	
6.24054	0.394897	-0.000152588	
6.24115	0.393982	0.00137329	
6.24023	0.392151	0.000152588	
6.23688	0.390625	-0.000152588	
6.23657	0.39093	0	
6.23657	0.390625	0.000610352	
6.23627	0.387268	0.000152588	
6.23596	0.385742	0.000762939	
6.23657	0.385742	0.000457764	
6.23566	0.38269	0.000457764	
6.23566	0.380859	0	
6.23291	0.380554	0.00106812	
6.23138	0.377197	0.000457764	
6.23199	0.375366	0.000457764	
6.23108	0.375977	0.000305176	
6.23199	0.37262	0	
6.23169	0.370483	-0.000762939	
6.23199	0.371399	0.000152588	
6.23047	0.367432	0.000762939	
6.22772	0.365906	0.000305176	
6.22711	0.365295	-0.000152588	
6.22589	0.363159	0.000915527	
6.22711	0.361633	0.000610352	
6.2265	0.360413	0.00106812	
6.22711	0.357971	0.000762939	
6.22681	0.35614	0.000152588	
6.22589	0.353394	0.000610352	
6.22681	0.351563	0.000152588	
6.22681	0.350342	0.000762939	
6.2265	0.3479	-0.000152588	
6.22589	0.34668	-0.000610352	
6.2265	0.346069	0.00106812	
6.2265	0.343323	0.000305176	
6.22742	0.341797	0.000305176	
6.2265	0.340271	0.000457764	
6.2265	0.338135	0.000457764	
6.2262	0.336914	0.000915527	
6.2265	0.332947	0.000457764	
6.22498	0.331421	0.000457764	
6.22314	0.330505	0.000610352	
6.22192	0.328064	-0.000152588	
6.22223	0.327454	0.0012207	
6.22192	0.324097	0	
6.22192	0.32196	-0.000305176	
6.22162	0.32074	-0.000152588	
6.22162	0.317993	0.000762939	
6.22192	0.316467	-0.000457764	
6.22192	0.314026	0.000305176	
6.22131	0.312195	0.000305176	
6.22162	0.31189	0.00106812	
6.2207	0.308838	0	
6.21857	0.307617	0.0012207	
6.21674	0.303955	0.000457764	
6.21704	0.302734	0.000152588	
6.21674	0.301819	0.000152588	
6.21643	0.299072	0.000152588	
6.21613	0.296936	-0.000457764	
6.21674	0.2948	0.000305176	
6.21582	0.291748	0.000762939	
6.21307	0.292358	0.000305176	
6.21185	0.289612	-0.000610352	
6.21155	0.287476	0.000762939	
6.21185	0.284424	0.000915527	
6.21155	0.283203	0.00137329	
6.21094	0.282288	0.000915527	
6.21185	0.280151	0.000305176	
6.21185	0.278625	0.000610352	
6.21216	0.274963	0	
6.21155	0.272522	0.000610352	
6.21155	0.272522	0	
6.21002	0.269775	-0.000305176	
6.20728	0.268555	0.000915527	
6.20697	0.265198	0.000610352	
6.20605	0.263367	0.000152588	
6.20667	0.260315	0.000305176	
6.20667	0.258179	0.000457764	
6.20667	0.257874	0.000610352	
6.20605	0.255432	0.000610352	
6.20514	0.254211	0.000762939	
6.20361	0.249939	0.000762939	
6.20209	0.248108	-0.000305176	
6.20209	0.247498	0.0012207	
6.20148	0.245361	0.000152588	
6.20148	0.24292	-0.000152588	
6.20178	0.240173	-0.000152588	
6.20148	0.238342	0.000457764	
6.20117	0.236206	0	
6.20209	0.23407	0.000610352	
6.20148	0.233154	0.000152588	
6.20178	0.229797	0.000457764	
6.20148	0.228577	0	
6.20178	0.22583	0.00137329	
6.20239	0.223999	0.000457764	
6.20117	0.223694	0.000305176	
6.20178	0.220642	0.000305176	
6.20178	0.219421	0.000610352	
6.20148	0.215759	0.000152588	
6.20148	0.213928	0.000152588	
6.20087	0.210571	0.000457764	
6.19812	0.209045	0.000457764	
6.19659	0.20874	-0.000152588	
6.1972	0.205688	0.000915527	
6.1969	0.203857	0.00106812	
6.19659	0.201111	0.00106812	
6.19751	0.200195	0.000610352	
6.1969	0.19928	0.000457764	
6.19659	0.196533	0.000762939	
6.1972	0.194397	0.000457764	
6.1969	0.19165	0.000305176	
6.19659	0.189514	0.000152588	
6.19537	0.188904	-0.000610352	
6.19293	0.186462	0.00106812	
6.19232	0.184631	0.000457764	
6.19171	0.181274	0.000152588	
6.19202	0.179749	0.000152588	
6.19232	0.177307	0.000305176	
6.19171	0.174561	0.0012207	
6.19232	0.17395	0.000762939	
6.1908	0.171509	0.000762939	
6.18774	0.169678	0.000305176	
6.18744	0.166321	0	
6.18652	0.164795	0.000915527	
6.18652	0.16449	0.000457764	
6.18713	0.161438	-0.000610352	
6.18713	0.160217	0	
6.18652	0.158997	0.000610352	
6.18652	0.15686	-0.000152588	
6.18713	0.155029	0.000457764	
6.18652	0.152588	0.000305176	
6.18744	0.149841	0.000457764	
6.1853	0.150757	0.000152588	
6.18286	0.1474	0.0012207	
6.18225	0.145264	0.000152588	
6.18225	0.142517	0.000762939	
6.18225	0.140686	0.000152588	
6.18195	0.140076	0.000457764	
6.18195	0.136719	-0.000305176	
6.18195	0.135498	0.000305176	
6.18164	0.135498	0.000305176	
6.18256	0.132446	0	
6.18225	0.13092	0.000305176	
6.18164	0.127258	0.000915527	
6.18256	0.126038	0.000610352	
6.18195	0.126038	0.00152588	
6.18195	0.122375	0.000915527	
6.18256	0.120544	0.000610352	
6.18195	0.120239	0.000762939	
6.18195	0.117798	0.000305176	
6.18225	0.115662	0.000610352	
6.18195	0.11322	0	
6.18042	0.111084	-0.000610352	
6.17828	0.110779	0.000915527	
6.17767	0.108032	0.000610352	
6.17706	0.106506	0.000457764	
6.17706	0.105896	0.000152588	
6.17676	0.103149	0.000457764	
6.17706	0.100708	0.0012207	
6.17706	0.100708	0.000305176	
6.17615	0.0982666	0.000457764	
6.17371	0.0961304	0.000305176	
6.17188	0.09552	-0.000610352	
6.17249	0.0933838	0.000915527	
6.17249	0.0912476	0.000457764	
6.17279	0.0909424	-0.000152588	
6.17218	0.088501	-0.000152588	
6.17279	0.0869751	0.000610352	
6.17188	0.0863647	0.000152588	
6.17249	0.0836182	0.000152588	
6.17249	0.0820923	0.000305176	
6.17249	0.0808716	0.000457764	
6.17065	0.0793457	0	
6.16852	0.078125	0.0012207	
6.16852	0.0769043	0.000457764	
6.1673	0.0741577	0.000610352	
6.1673	0.0726318	0.000457764	
6.1676	0.0720215	0.000152588	
6.16699	0.0689697	-0.000305176	
6.1676	0.0674438	0	
6.1676	0.0674438	0.000152588	
6.16791	0.0646973	0.000305176	
6.16699	0.062561	-0.000457764	
6.16699	0.062561	0.000610352	
6.1676	0.0622559	0.000762939	
6.1673	0.0598145	0.00106812	
6.1673	0.0576782	0.00106812	
6.16699	0.0579834	0.000762939	
6.16577	0.0549316	0.000305176	
6.16333	0.0527954	0.000610352	
6.16211	0.0524902	0.000610352	
6.16241	0.0524902	-0.000152588	
6.16211	0.050354	-0.000152588	
6.16211	0.0479126	0.000915527	
6.16333	0.0473022	0.000305176	
6.16272	0.045166	0.000457764	
6.16272	0.0427246	0.000457764	
6.16272	0.0427246	0.000152588	
6.16211	0.0427246	0.000610352	
6.16211	0.039978	0.000610352	
6.16119	0.038147	0.000457764	
6.15906	0.0375366	0.000457764	
6.15753	0.0354004	0	
6.15753	0.0332642	0.00167847	
6.15753	0.032959	0.000610352	
6.15662	0.0326538	0.000152588	
6.15814	0.0299072	-0.000457764	
6.15723	0.0286865	0.000305176	
6.15723	0.0283813	0	
6.15753	0.0283813	0.000610352	
6.15784	0.0253296	0.000305176	
6.15753	0.0228882	0.000762939	
6.15601	0.0228882	0.000152588	
6.15356	0.0234985	0.00137329	
6.15295	0.0228882	0.000305176	
6.15234	0.020752	0.000610352	
6.15234	0.0183105	0.000610352	
6.15234	0.0183105	0.000457764	
6.15326	0.0180054	-0.000152588	
6.15173	0.0152588	0.000305176	
6.15234	0.0134277	0.000457764	
6.15234	0.0128174	0.000152588	
6.15234	0.012207	-0.000152588	
6.15265	0.010376	0.00106812	
6.15295	0.00823975	0.000762939	
6.15295	0.00854492	0.00152588	
6.15326	0.00823975	0.000762939	
6.15234	0.00854492	0.000610352	
6.15173	0.00488281	0.000305176	
6.14868	0.00488281	0.000305176	
6.14807	0.00366211	0.000762939	
6.14838	0.00335693	-0.000152588	
6.14807	0.00274658	-0.000305176	
6.14716	0.000610352	0.000762939	
6.14746	-0.0012207	0.000305176	
6.14838	-0.0012207	0.000305176	
6.14807	-0.000610352	0.000457764	
6.14838	-0.000610352	0.000610352	
6.14746	-0.00335693	0.00106812	
6.14746	-0.00549316	0.000305176	
6.14624	-0.00579834	0.00106812	
6.14349	-0.00671387	0.000152588	
6.14288	-0.00610352	-0.000152588	
6.14288	-0.00854492	0.00137329	
6.14258	-0.0106812	0.000305176	
6.14258	-0.0106812	-0.000152588	
6.14258	-0.0109863	0	
6.14258	-0.0112915	0.000457764	
6.14319	-0.0112915	0.000152588	
6.14227	-0.0137329	0.000152588	
6.14197	-0.0158691	0.000152588	
6.14288	-0.0164795	0.000762939	
6.14166	-0.0161743	0	
6.13953	-0.0161743	0.000915527	
6.13831	-0.0158691	0.000457764	
6.138	-0.0192261	0.000915527	
6.1377	-0.0210571	0.000762939	
6.138	-0.0216675	0.000305176	
6.13739	-0.020752	-0.000152588	
6.13739	-0.0216675	0	
6.1377	-0.0204468	0.000152588	
6.1377	-0.0210571	-0.000152588	
6.13831	-0.0241089	-0.000305176	
6.138	-0.0256348	0.000762939	
6.138	-0.0256348	0.000457764	
6.138	-0.0259399	0.0012207	
6.13831	-0.0256348	0.000915527	
6.1377	-0.0256348	0	
6.13831	-0.0262451	0.000762939	
6.13831	-0.0292969	0.000305176	
6.138	-0.0299072	0.000915527	
6.13708	-0.0308228	-0.000152588	
6.13586	-0.0305176	-0.000152588	
6.13403	-0.0308228	0.000762939	
6.13342	-0.0317383	0.000457764	
6.13342	-0.0308228	0.000457764	
6.13312	-0.0311279	0.000152588	
6.13312	-0.0332642	0.000915527	
6.13281	-0.0354004	0.0012207	
6.13342	-0.0357056	0.000762939	
6.1319	-0.0354004	0.000610352	
6.12915	-0.0357056	0.000305176	
6.12854	-0.0354004	-0.000152588	
6.12762	-0.0360107	0.00137329	
6.12793	-0.0357056	0.000152588	
6.12793	-0.0378418	0.000152588	
6.12854	-0.0405884	-0.000152588	
6.12885	-0.0405884	0.000305176	
6.12793	-0.0405884	0.000152588	
6.12732	-0.0405884	0.000152588	
6.12854	-0.0405884	0	
6.12732	-0.0411987	0.000762939	
6.1264	-0.0408936	0	
6.12518	-0.0405884	0.0012207	
6.12274	-0.0430298	0.000610352	
6.12335	-0.045166	0.000762939	
6.12274	-0.0448608	0.000457764	
6.12335	-0.0457764	0	
6.12305	-0.0460815	-0.000152588	
6.12305	-0.0457764	0.000457764	
6.12305	-0.045166	0.000610352	
6.12366	-0.0457764	0.000610352	
6.12366	-0.0454712	-0.000152588	
6.12305	-0.0454712	0.00106812	
6.12366	-0.0482178	0.000457764	
6.12305	-0.0512695	0.00106812	
6.12305	-0.0500488	0.00106812	
6.12305	-0.050354	0.000305176	
6.12244	-0.050354	0.000457764	
6.12335	-0.0506592	0.000457764	
6.12366	-0.050354	0.000610352	
6.12396	-0.0500488	0.000152588	
6.12152	-0.0500488	-0.000152588	
6.12	-0.0509644	0.00106812	
6.11847	-0.0500488	0.000152588	
6.11847	-0.0506592	0.000457764	
6.11847	-0.0537109	0.000152588	
6.11816	-0.0549316	0.000457764	
6.11755	-0.055542	0.00137329	
6.11816	-0.0549316	0.000457764	
6.11694	-0.0549316	0.000915527	
6.1142	-0.0549316	0.00106812	
6.11359	-0.055542	0	
6.11389	-0.0549316	0.00106812	
6.11328	-0.0546265	0.000305176	
6.11359	-0.0552368	-0.000305176	
6.11359	-0.0558472	0	
6.11267	-0.055542	0.000305176	
6.11359	-0.055542	0.000152588	
6.11267	-0.0549316	0.000305176	
6.11328	-0.0570679	0.000152588	
6.11328	-0.06073	0.000610352	
6.11176	-0.0601196	-0.000152588	
6.10962	-0.0604248	0.00106812	
6.10809	-0.0604248	0.000305176	
6.10779	-0.0601196	0.000762939	
6.10779	-0.0604248	0.000457764	
6.10779	-0.0601196	0.000457764	
6.10779	-0.0604248	-0.000152588	
6.1084	-0.0598145	0	
6.1084	-0.0604248	0.000305176	
6.10779	-0.0604248	0.000305176	
6.10748	-0.0601196	-0.000305176	
6.10809	-0.0601196	0.000915527	
6.1084	-0.0595093	0.000305176	
6.10809	-0.0601196	0.00137329	
6.10779	-0.062561	0.00137329	
6.1084	-0.0646973	0.000457764	
6.10809	-0.0650024	0.000457764	
6.10748	-0.0650024	0.000305176	
6.10779	-0.0656128	0.000762939	
6.10779	-0.0650024	0.000152588	
6.10626	-0.0653076	-0.000305176	
6.10443	-0.0653076	0.00106812	
6.10352	-0.065918	0.000152588	
6.10352	-0.0653076	0.000457764	
6.10291	-0.0650024	-0.000152588	
6.10352	-0.0646973	0.000305176	
6.10291	-0.0653076	0.0012207	
6.10352	-0.0656128	0.000457764	
6.10168	-0.0650024	0.000762939	
6.09924	-0.0643921	0.000762939	
6.09833	-0.0650024	-0.000305176	
6.09833	-0.0653076	0.00167847	
6.09772	-0.0640869	0.000457764	
6.09802	-0.0653076	-0.000305176	
6.09772	-0.0674438	-0.000457764	
6.09802	-0.0695801	0.000305176	
6.09802	-0.0695801	0.000152588	
6.09802	-0.0701904	0.000305176	
6.09833	-0.0704956	0.000152588	
6.09863	-0.0701904	0.000762939	
6.0968	-0.0695801	0	
6.09467	-0.0704956	0.00152588	
6.09375	-0.0701904	0.000305176	
6.09253	-0.0695801	0.000915527	
6.09314	-0.0704956	0.000457764	
6.09344	-0.0698853	0.000152588	
6.09283	-0.0698853	-0.000305176	
6.09314	-0.0701904	0.000305176	
6.09314	-0.0695801	0.000152588	
6.09283	-0.0698853	0.000457764	
6.09375	-0.0704956	-0.000762939	
6.09375	-0.0704956	0.00106812	
6.09375	-0.0701904	0.000762939	
6.09375	-0.0701904	0.0012207	
6.09344	-0.0698853	0.000915527	
6.09344	-0.0698853	0.000305176	
6.09192	-0.0704956	0.000610352	
6.08917	-0.072937	0.000610352	
6.08887	-0.0738525	0.000915527	
6.08765	-0.0750732	0.000305176	
6.08826	-0.0750732	-0.000457764	
6.08826	-0.0753784	0.000610352	
6.08765	-0.0750732	0.000305176	
6.08887	-0.0753784	0.000610352	
6.08765	-0.0750732	0.000152588	
6.08795	-0.0756836	0.000915527	
6.08795	-0.0750732	0.000915527	
6.08826	-0.0753784	0	
6.08734	-0.0750732	0.000457764	
6.08459	-0.0756836	0.000762939	
6.08398	-0.0747681	-0.000457764	
6.08368	-0.0750732	0.00152588	
6.08368	-0.0750732	0.000305176	
6.08337	-0.0747681	-0.000152588	
6.08398	-0.0747681	-0.000305176	
6.08307	-0.0747681	0.000457764	
6.08398	-0.0750732	0.000152588	
6.08337	-0.0750732	0	
6.08398	-0.0756836	0.000305176	
6.08337	-0.0750732	0.000762939	
6.08276	-0.0750732	-0.000152588	
6.07941	-0.0744629	0.00152588	
6.0788	-0.0753784	0.000152588	
6.07849	-0.0775146	0.000762939	
6.0788	-0.0793457	0.000305176	
6.07819	-0.0802612	0.000457764	
6.07819	-0.0796509	-0.000152588	
6.07819	-0.0793457	-0.000152588	
6.07727	-0.0799561	0.000305176	
6.07483	-0.0802612	0.000457764	
6.07452	-0.0796509	-0.000305176	
6.07361	-0.0802612	0.000762939	
6.07391	-0.0799561	0.000305176	
6.07391	-0.0796509	0.00106812	
6.07361	-0.0793457	0.00106812	
6.07361	-0.0790405	0.000610352	
6.07391	-0.0796509	0.000610352	
6.07422	-0.0796509	0.000610352	
6.07361	-0.0796509	0.000457764	
6.07422	-0.0793457	0.000305176	
6.07208	-0.0796509	-0.000457764	
6.06995	-0.0799561	0.000915527	
6.06903	-0.0799561	0.000762939	
6.06812	-0.0790405	0.000457764	
6.06812	-0.0799561	0.000305176	
6.06873	-0.0796509	0.000610352	
6.06903	-0.0802612	0.00106812	
6.06812	-0.0796509	0.000152588	
6.06934	-0.0823975	0.000762939	
6.06873	-0.0842285	0.000457764	
6.06842	-0.0842285	-0.000152588	
6.06873	-0.0848389	0.00152588	
6.06934	-0.0848389	0.000152588	
6.06934	-0.0848389	-0.000152588	
6.06842	-0.0848389	-0.000457764	
6.06873	-0.085144	0.000610352	
6.0675	-0.0848389	0.000305176	
6.06476	-0.0845337	0.000305176	
6.06415	-0.0842285	0	
6.06476	-0.0848389	0.000610352	
6.06354	-0.0842285	0	
6.06384	-0.0848389	0.0012207	
6.06384	-0.0842285	0.000457764	
6.06354	-0.0848389	0.000305176	
6.06323	-0.085144	0.000152588	
6.06323	-0.0842285	0.000152588	
6.06384	-0.0842285	0.000305176	
6.06445	-0.0845337	0	
6.06262	-0.0848389	0.000152588	
6.05988	-0.0869751	0.000305176	
6.05865	-0.088501	-0.000305176	
6.05865	-0.0894165	0.000915527	
6.05957	-0.0894165	0.000457764	
6.05896	-0.0897217	0.00137329	
6.05865	-0.0894165	0.000915527	
6.05896	-0.0900269	0.000457764	
6.05835	-0.0891113	0.000305176	
6.05896	-0.0900269	0.000457764	
6.05835	-0.0897217	0.000152588	
6.05804	-0.0894165	0.000457764	
6.05713	-0.0897217	-0.000457764	
6.05469	-0.0900269	0.000915527	
6.05377	-0.090332	0.000457764	
6.05377	-0.090332	0.000305176	
6.05377	-0.0897217	0.000152588	
6.05408	-0.0891113	0.000610352	
6.05377	-0.0897217	0.0012207	
6.05377	-0.0924683	0.000457764	
6.05286	-0.0942993	0.000762939	
6.05011	-0.0942993	0.000762939	
6.04919	-0.0949097	-0.000305176	
6.04889	-0.09552	0.0012207	
6.04858	-0.0942993	0.000610352	
6.04858	-0.0949097	-0.000305176	
6.0495	-0.0939941	-0.000457764	
6.04919	-0.0939941	0.000305176	
6.04889	-0.0946045	0.000152588	
6.04828	-0.0939941	0	
6.04828	-0.0939941	0.000305176	
6.04858	-0.0942993	0.000457764	
6.04736	-0.0946045	-0.000152588	
6.04584	-0.0939941	0.0012207	
6.04431	-0.0949097	0.000457764	
6.04431	-0.0942993	0.000762939	
6.0437	-0.0973511	0.000305176	
6.04401	-0.098877	0.000152588	
6.04401	-0.0997925	0	
6.0437	-0.0991821	0.000305176	
6.04248	-0.0994873	0.000152588	
6.04004	-0.0991821	0.000457764	
6.03912	-0.0994873	-0.000305176	
6.03912	-0.0991821	0.000610352	
6.03912	-0.100403	0.000305176	
6.03912	-0.0994873	0.00167847	
6.03943	-0.0994873	0.000762939	
6.03851	-0.0991821	0.000457764	
6.03882	-0.0991821	0.000457764	
6.03912	-0.0991821	0.000457764	
6.03882	-0.0997925	0.000305176	
6.03851	-0.102234	-0.000152588	
6.03851	-0.10376	0.000762939	
6.03882	-0.10498	0	
6.03851	-0.10437	0.000762939	
6.03882	-0.10498	0.000457764	
6.03729	-0.10437	0.000305176	
6.03546	-0.10437	0.000457764	
6.03424	-0.10437	0.0012207	
6.03424	-0.10437	0.000305176	
6.03424	-0.10437	0.000762939	
6.03394	-0.10437	0	
6.03394	-0.104065	0.0012207	
6.03333	-0.10437	0.000762939	
6.03363	-0.107422	0.000457764	
6.03363	-0.109253	-0.000610352	
6.03394	-0.108643	-0.000610352	
6.03394	-0.108948	0.000152588	
6.03271	-0.109253	0	
6.03058	-0.108643	0	
6.02936	-0.109253	0.000152588	
6.02844	-0.109253	-0.000152588	
6.02936	-0.109863	0.00167847	
6.02905	-0.109558	0.000762939	
6.02966	-0.109558	0.000152588	
6.02936	-0.108948	0.000762939	
6.02875	-0.108948	0.000457764	
6.02814	-0.112305	0.000305176	
6.02905	-0.114441	0	
6.02875	-0.113831	0	
6.02783	-0.114746	0	
6.02448	-0.114136	-0.000457764	
6.02417	-0.114136	0.000762939	
6.02386	-0.114746	0.000305176	
6.02386	-0.114136	0.000305176	
6.02386	-0.113831	0.00183105	
6.02356	-0.113525	0.00106812	
6.02386	-0.113831	0.000610352	
6.02356	-0.113831	0.000152588	
6.02386	-0.113831	0.000457764	
6.02417	-0.116882	0.000762939	
6.02356	-0.118713	-0.000152588	
6.02264	-0.118713	0.000915527	
6.01959	-0.119324	0.000305176	
6.0199	-0.118408	0.000305176	
6.01929	-0.119324	0.000152588	
6.01898	-0.118713	0.000305176	
6.01959	-0.118408	0.000457764	
6.01868	-0.119324	0.000915527	
6.01929	-0.118713	0.000457764	
6.01715	-0.119324	0.00106812	
6.01563	-0.119019	0	
6.0144	-0.119324	0.00183105	
6.01501	-0.121765	0.000762939	
6.0141	-0.123901	0.000457764	
6.01379	-0.123901	-0.000457764	
6.01349	-0.124512	-0.000457764	
6.01501	-0.123596	0.000152588	
6.01379	-0.124207	0.000305176	
6.0144	-0.124207	0.000152588	
6.0144	-0.123596	0.000152588	
6.0144	-0.124512	-0.000152588	
6.01288	-0.124512	0.00152588	
6.01013	-0.123901	0.000762939	
6.00952	-0.123901	0.000305176	
6.00922	-0.126648	0.000610352	
6.00952	-0.128479	0.000152588	
6.00922	-0.128784	0.000152588	
6.0083	-0.128784	-0.000305176	
6.00922	-0.128479	0.000305176	
6.0083	-0.129089	0.000457764	
6.00525	-0.128784	-0.000762939	
6.00433	-0.129089	0.000915527	
6.00464	-0.129395	0	
6.00464	-0.129089	0.000762939	
6.00464	-0.128479	0.000915527	
6.00464	-0.128784	0.000915527	
6.00433	-0.131531	0.000610352	
6.00525	-0.133972	0.000457764	
6.00433	-0.133362	0.000457764	
6.00372	-0.133667	0.000152588	
6.00464	-0.133972	-0.000610352	
6.00281	-0.133667	0.000915527	
6.00098	-0.133667	0.000152588	
6.00006	-0.133972	0.000305176	
5.99976	-0.133972	0	
5.99976	-0.133362	0.000305176	
6.00006	-0.133972	0.000457764	
5.99976	-0.133667	0.00106812	
5.99915	-0.136414	0.000762939	
5.99976	-0.138855	0.000610352	
5.99976	-0.138245	-0.000610352	
5.99945	-0.13855	0.00137329	
6.00006	-0.138245	0.000610352	
5.99792	-0.13855	0.000457764	
5.99518	-0.138855	0	
5.99457	-0.13855	-0.000152588	
5.99457	-0.139465	0	
5.99518	-0.13916	0.000152588	
5.99396	-0.138245	0.000152588	
5.99487	-0.13855	0.000152588	
5.99457	-0.141602	-0.000305176	
5.99365	-0.143433	0.0012207	
5.9906	-0.144043	0.000457764	
5.98999	-0.143433	0.000457764	
5.98969	-0.143433	0.000457764	
5.98999	-0.143433	0.000610352	
5.98938	-0.143738	0	
5.98999	-0.143433	0	
5.98938	-0.143433	0.000152588	
5.98938	-0.143738	0	
5.98907	-0.144348	-0.000610352	
5.98969	-0.143738	0.00137329	
5.98969	-0.14679	0.000152588	
5.98816	-0.147705	0.000305176	
5.98602	-0.148926	0.00152588	
5.9845	-0.148621	0.0012207	
5.9848	-0.148315	0.000762939	
5.98511	-0.148315	0.000305176	
5.9848	-0.148926	0.000305176	
5.9848	-0.148621	0.000610352	
5.9848	-0.148621	-0.000305176	
5.98358	-0.148621	0.0012207	
5.98083	-0.147705	0.000152588	
5.97961	-0.148926	0.000152588	
5.97931	-0.151062	0.000305176	
5.97931	-0.152893	0.000152588	
5.98022	-0.153503	0.000610352	
5.97961	-0.152588	0.000610352	
5.97931	-0.153198	0.000762939	
5.97839	-0.152893	0.000152588	
5.97626	-0.154114	-0.000152588	
5.97534	-0.152893	0.0012207	
5.97473	-0.153198	0.000915527	
5.97473	-0.152893	0.000457764	
5.97504	-0.153809	-0.000457764	
5.97504	-0.153809	0	
5.97473	-0.153198	0.000457764	
5.97473	-0.15686	0.000457764	
5.97504	-0.157776	0	
5.97504	-0.158386	0.000152588	
5.97443	-0.158081	-0.000152588	
5.97321	-0.158386	0.00152588	
5.97107	-0.157776	0.000915527	
5.97046	-0.157776	0.000305176	
5.97015	-0.158386	0.000915527	
5.97015	-0.157471	0.000610352	
5.97046	-0.157471	0	
5.96985	-0.157776	-0.000152588	
5.96954	-0.158081	0.000305176	
5.96985	-0.157471	0.000457764	
5.96985	-0.160828	-0.000305176	
5.96924	-0.162048	0.00106812	
5.97046	-0.163269	0.000457764	
5.96893	-0.163879	0.000457764	
5.96588	-0.162659	0.00167847	
5.96527	-0.162354	0.00106812	
5.96527	-0.163269	0.000610352	
5.96466	-0.163879	0.000457764	
5.96466	-0.163269	0.000305176	
5.96436	-0.162659	0.000610352	
5.96497	-0.162354	-0.000762939	
5.96497	-0.162659	0.000915527	
5.96466	-0.163269	0	
5.96497	-0.162964	0	
5.96497	-0.16571	0.000457764	
5.96344	-0.167236	-0.000152588	
5.961	-0.167847	0.000762939	
5.96039	-0.167542	0.000915527	
5.95947	-0.168152	0.000610352	
5.96069	-0.167236	0.000915527	
5.95947	-0.167542	0	
5.96008	-0.167847	0.00152588	
5.96039	-0.168152	0.000762939	
5.95825	-0.167847	0.000610352	
5.95642	-0.167542	-0.000457764	
5.9552	-0.167542	-0.000610352	
5.9549	-0.168152	0.000457764	
5.95581	-0.167847	-0.000152588	
5.9549	-0.170898	0.000152588	
5.9552	-0.172119	0.000152588	
5.95428	-0.172424	-0.000152588	
5.9552	-0.173645	0.00152588	
5.95581	-0.172424	0.000915527	
5.95551	-0.172729	0.000457764	
5.95551	-0.172424	0.000762939	
5.9552	-0.17334	0.000457764	
5.9552	-0.172424	0.000152588	
5.9549	-0.172424	0	
5.95428	-0.173035	0.000305176	
5.95367	-0.172424	0.000152588	
5.95123	-0.172424	-0.000305176	
5.95032	-0.17334	0.0012207	
5.95032	-0.173035	0.000305176	
5.95032	-0.172729	0.000305176	
5.9494	-0.176086	0.00167847	
5.95032	-0.177917	0.00106812	
5.95093	-0.178223	0.000915527	
5.94849	-0.177612	0.000610352	
5.94604	-0.177612	0.000610352	
5.94543	-0.178528	0.000762939	
5.94543	-0.177917	-0.000610352	
5.94452	-0.178223	0.000762939	
5.94543	-0.178223	0.000152588	
5.94513	-0.177917	0.000152588	
5.94543	-0.177307	0.000152588	
5.94482	-0.177917	0	
5.94543	-0.177917	0.000457764	
5.94543	-0.177307	0.000762939	
5.94513	-0.177917	0.000457764	
5.9436	-0.177612	0.000610352	
5.94086	-0.177612	-0.000305176	
5.93994	-0.180664	0.00152588	
5.93964	-0.18219	0.000610352	
5.93964	-0.183105	0.000305176	
5.94025	-0.1828	-0.000152588	
5.93994	-0.182495	-0.000305176	
5.94055	-0.1828	0.000457764	
5.93933	-0.182495	0	
5.93597	-0.183105	0.000457764	
5.93536	-0.182495	0.000457764	
5.93536	-0.183105	-0.000152588	
5.93567	-0.1828	0.00152588	
5.93506	-0.18219	0.000762939	
5.93536	-0.182495	0.000457764	
5.93567	-0.1828	0.000762939	
5.93536	-0.183716	0.000762939	
5.93445	-0.182495	0.000305176	
5.93567	-0.181885	-0.000305176	
5.93536	-0.1828	0	
5.93445	-0.18219	0.000152588	
5.9314	-0.184937	-0.000610352	
5.93048	-0.187683	0.000915527	
5.93018	-0.187073	0	
5.93048	-0.187073	0.000457764	
5.93048	-0.187378	0.00137329	
5.93048	-0.187073	0.00106812	
5.93048	-0.187683	0.000305176	
5.93079	-0.188293	0.000610352	
5.93079	-0.187073	0.000305176	
5.93109	-0.187988	0.000762939	
5.93018	-0.187988	-0.000610352	
5.92957	-0.187683	0.000762939	
5.9259	-0.187988	0.000152588	
5.9259	-0.187378	0.000457764	
5.9259	-0.187988	0.000305176	
5.92499	-0.187683	0.000152588	
5.92529	-0.187378	0.000610352	
5.9256	-0.187378	0.000915527	
5.92438	-0.187683	0.000610352	
5.92407	-0.187378	0.000457764	
5.92133	-0.187683	-0.000152588	
5.92041	-0.189514	0.00137329	
5.92041	-0.191956	0.000762939	
5.92041	-0.192566	0.000457764	
5.92041	-0.192871	-0.000305176	
5.9201	-0.191956	-0.000457764	
5.92072	-0.192261	0.000305176	
5.92102	-0.192261	-0.000152588	
5.9198	-0.191956	0.000305176	
5.92072	-0.192566	0.000305176	
5.92072	-0.192566	-0.000152588	
5.91919	-0.192566	0.00137329	
5.91644	-0.191956	0.000610352	
5.91583	-0.192566	-0.000152588	
5.91522	-0.192261	0.000915527	
5.91553	-0.192566	0.000457764	
5.91553	-0.192261	0.000305176	
5.91522	-0.191956	0	
5.91583	-0.192261	0.000152588	
5.91492	-0.192566	0	
5.91187	-0.192261	-0.000610352	
5.91064	-0.192261	0.0012207	
5.91064	-0.192566	0	
5.91095	-0.192261	0.000305176	
5.91095	-0.192566	0.00137329	
5.91095	-0.192566	0.00106812	
5.91156	-0.191956	0.000762939	
5.91095	-0.192871	0.000152588	
5.91064	-0.195923	0.000305176	
5.91064	-0.196838	0.000762939	
5.91095	-0.197144	-0.000305176	
5.90942	-0.198364	0.000762939	
5.90637	-0.197449	0.000152588	
5.90637	-0.197144	0.000610352	
5.90576	-0.197144	0.000152588	
5.90607	-0.197449	0.000152588	
5.90576	-0.197144	0.000610352	
5.90546	-0.197144	0.000610352	
5.90607	-0.196533	0.000457764	
5.90363	-0.197144	0.000915527	
5.90179	-0.197144	-0.000305176	
5.90118	-0.197449	0.0012207	
5.90118	-0.197144	0.00106812	
5.90118	-0.196838	0.000305176	
5.90057	-0.197449	-0.000152588	
5.90088	-0.196838	-0.000610352	
5.90057	-0.197144	0.000305176	
5.90118	-0.197754	0.000152588	
5.90088	-0.197449	-0.000152588	
5.90118	-0.197449	0.000457764	
5.90118	-0.197449	-0.000152588	
5.89935	-0.196838	0.00152588	
5.89691	-0.196838	0.000457764	
5.8963	-0.197449	0	
5.89569	-0.197449	0.000915527	
5.89569	-0.197144	0.000457764	
5.896	-0.197144	0.000152588	
5.89661	-0.197754	0	
5.896	-0.197449	0.000457764	
5.89447	-0.197449	0.000457764	
5.89142	-0.197754	-0.000305176	
5.89081	-0.196838	0.000915527	
5.8905	-0.200195	0	
5.89111	-0.202332	0.000305176	
5.8905	-0.202026	0.00137329	
5.89081	-0.202332	0.00137329	
5.89111	-0.202026	0.000762939	
5.89142	-0.202637	0.000457764	
5.89111	-0.202332	0.000762939	
5.89081	-0.202026	0.000762939	
5.89081	-0.202332	-0.000305176	
5.88928	-0.202332	0.000915527	
5.88684	-0.202332	0.000152588	
5.88623	-0.202332	0.000762939	
5.88593	-0.202026	0.000305176	
5.88593	-0.202332	0.000152588	
5.88593	-0.202637	0.000762939	
5.88531	-0.202332	0.000762939	
5.88593	-0.202332	0.000762939	
5.88501	-0.202332	0.000762939	
5.88165	-0.202026	-0.000152588	
5.88104	-0.202026	0.0012207	
5.88104	-0.202942	0.000762939	
5.88165	-0.202332	0.000152588	
5.88135	-0.202637	-0.000305176	
5.88104	-0.202332	-0.000305176	
5.88135	-0.202942	0.000457764	
5.88074	-0.202332	0.000457764	
5.88196	-0.201721	0.000152588	
5.88135	-0.202637	0.000305176	
5.88043	-0.202637	-0.000152588	
5.87921	-0.202026	0.00152588	
5.87708	-0.202026	0.000915527	
5.87555	-0.202637	0.000457764	
5.87585	-0.202332	0.000762939	
5.87646	-0.202026	0.000610352	
5.87555	-0.202026	0.000152588	
5.87646	-0.201721	0.000305176	
5.87585	-0.202026	0.000152588	
5.87494	-0.202637	0.000152588	
5.8725	-0.202332	-0.000305176	
5.87128	-0.202637	0.00137329	
5.87128	-0.202332	0.000152588	
5.87097	-0.203247	0.000305176	
5.87067	-0.205383	0.00137329	
5.87097	-0.206604	0.000915527	
5.87097	-0.206909	0.000457764	
5.87067	-0.20752	0.000457764	
5.87097	-0.207214	0.000610352	
5.87097	-0.20752	0.000457764	
5.87067	-0.207214	-0.000152588	
5.86975	-0.20752	0.000915527	
5.867	-0.20752	0	
5.86609	-0.20752	0.000762939	
5.86517	-0.207825	0.000152588	
5.86639	-0.20813	0.000305176	
5.86609	-0.20752	0.000457764	
5.86609	-0.207214	0.000915527	
5.86639	-0.206909	0.000610352	
5.86456	-0.206909	0.000610352	
5.86304	-0.206909	-0.000152588	
5.86151	-0.206909	0.00152588	
5.8609	-0.207214	0.000610352	
5.86121	-0.20752	0.000457764	
5.86182	-0.206909	-0.000305176	
5.86182	-0.207825	-0.000610352	
5.8609	-0.206604	0	
5.8609	-0.206909	0.000457764	
5.8609	-0.207214	-0.000152588	
5.86121	-0.206909	0	
5.8609	-0.206909	-0.000457764	
5.85999	-0.207214	0.00167847	
5.85754	-0.207214	0.000762939	
5.85663	-0.207214	0.000457764	
5.85693	-0.206909	0.000610352	
5.85663	-0.206909	0.000915527	
5.85663	-0.20752	0.000457764	
5.85632	-0.206909	-0.000305176	
5.85632	-0.207214	0.000457764	
5.85663	-0.20752	-0.000152588	
5.85693	-0.206909	-0.000610352	
5.85663	-0.207214	0.00106812	
5.85663	-0.20752	0	
5.85632	-0.206604	0.000457764	
5.85663	-0.207214	0.00137329	
5.85632	-0.207214	0.00152588	
5.85632	-0.207825	0.000762939	
5.85571	-0.206604	0.000152588	
5.85297	-0.207214	0.000915527	
5.85175	-0.207825	0.000305176	
5.85114	-0.206909	-0.000305176	
5.85175	-0.206604	0.000915527	
5.85083	-0.207214	-0.000152588	
5.85175	-0.20752	0.000152588	
5.85236	-0.206909	0	
5.85052	-0.207214	0.000305176	
5.84778	-0.207214	0.000610352	
5.84717	-0.207214	0.000762939	
5.84656	-0.206909	0.000915527	
5.84625	-0.206909	0.000762939	
5.84717	-0.20752	-0.000152588	
5.84656	-0.207214	0.00137329	
5.84656	-0.207825	0.000610352	
5.84656	-0.207214	0.000305176	
5.84656	-0.20752	-0.000152588	
5.84686	-0.20752	-0.000305176	
5.84656	-0.207214	0.000152588	
5.84503	-0.206909	0.000610352	
5.8429	-0.207214	0	
5.84137	-0.20752	0.000457764	
5.84167	-0.207214	-0.000457764	
5.84167	-0.207214	0.00137329	
5.84198	-0.206909	0.000610352	
5.84259	-0.207214	0.000305176	
5.84229	-0.207214	0.000762939	
5.84137	-0.206909	0.000915527	
5.84198	-0.20752	0.000457764	
5.84198	-0.206909	0.000457764	
5.84106	-0.20752	0.000457764	
5.84076	-0.20752	0.000305176	
5.83771	-0.20752	-0.000305176	
5.8374	-0.206909	0.00106812	
5.83679	-0.206909	0.000762939	
5.83649	-0.207214	0.000457764	
5.83649	-0.206909	0.00106812	
5.8371	-0.207214	0.00167847	
5.83618	-0.207214	0.000915527	
5.83557	-0.207214	0.000457764	
5.83313	-0.207214	0.000457764	
5.83191	-0.20752	0.000457764	
5.8316	-0.207214	-0.000457764	
5.8316	-0.20752	0.00106812	
5.83191	-0.206909	0	
5.83221	-0.20752	0.000610352	
5.83191	-0.20752	0.000152588	
5.8316	-0.20752	0.000152588	
5.8316	-0.20752	0.000457764	
5.8316	-0.206909	0.000610352	
5.8316	-0.207214	0.000457764	
5.83038	-0.206604	0.000915527	
5.82825	-0.207214	-0.000152588	
5.82672	-0.204468	0.00137329	
5.82672	-0.202637	0.000610352	
5.82642	-0.201721	0.000762939	
5.82733	-0.202026	-0.000610352	
5.82733	-0.202637	-0.000457764	
5.82733	-0.202637	0.000152588	
5.82764	-0.202637	0.000457764	
5.82642	-0.201721	0.000152588	
5.82703	-0.202332	0.000305176	
5.82672	-0.202942	-0.000305176	
5.8255	-0.202637	0.00152588	
5.82275	-0.202637	0.000762939	
5.82214	-0.202332	0.000305176	
5.82245	-0.202332	0.000915527	
5.82245	-0.202026	0.000762939	
5.82184	-0.202637	0.000457764	
5.82153	-0.202332	-0.000152588	
5.82184	-0.19928	-0.000152588	
5.82031	-0.198059	0.000152588	
5.81757	-0.197754	-0.000762939	
5.81696	-0.197449	0.00106812	
5.81696	-0.197144	0.000305176	
5.81726	-0.197449	0.000457764	
5.81726	-0.197449	0.00106812	
5.81696	-0.197449	0.0012207	
5.81696	-0.197144	0.000762939	
5.81757	-0.198059	0.000610352	
5.81635	-0.197754	0.000305176	
5.81757	-0.194397	0.000610352	
5.81757	-0.193176	-0.000762939	
5.81573	-0.192261	0.000762939	
5.81268	-0.191956	0.000152588	
5.81238	-0.192261	0.000305176	
5.81238	-0.192566	0.000457764	
5.81268	-0.191956	0.000152588	
5.81238	-0.19165	0.000305176	
5.81146	-0.19165	0.000915527	
5.81238	-0.189819	0.000610352	
5.81055	-0.187683	0.000457764	
5.80841	-0.187988	0	
5.8075	-0.187378	0.00167847	
5.80719	-0.187378	0.00106812	
5.8075	-0.187683	0.000610352	
5.80658	-0.187378	-0.000152588	
5.80719	-0.184631	-0.000457764	
5.80658	-0.183105	0	
5.8075	-0.182495	0.000457764	
5.80688	-0.18219	0.000305176	
5.80627	-0.183105	-0.000152588	
5.80658	-0.183105	-0.000305176	
5.80566	-0.179443	0.0012207	
5.80383	-0.177917	0.000762939	
5.80231	-0.178528	0.000457764	
5.80261	-0.177612	0.00106812	
5.802	-0.177612	0.000305176	
5.802	-0.175781	0.000152588	
5.8017	-0.173035	0.000305176	
5.802	-0.173035	0.000152588	
5.80078	-0.173645	0.000457764	
5.79834	-0.172424	-0.000152588	
5.79773	-0.169983	0.000915527	
5.79773	-0.168457	0.000762939	
5.79773	-0.167542	0.000457764	
5.79712	-0.167542	0.0012207	
5.79773	-0.165405	0.0012207	
5.79742	-0.163269	0.000915527	
5.79773	-0.162354	0.000457764	
5.79742	-0.163574	0.000915527	
5.79712	-0.159912	0.000915527	
5.79681	-0.158691	-0.000152588	
5.7962	-0.158081	0.00106812	
5.79346	-0.158691	0.000457764	
5.79254	-0.15564	0.000457764	
5.79285	-0.153503	0.000152588	
5.79254	-0.153809	0.000152588	
5.79224	-0.153503	0.000305176	
5.79193	-0.150452	0.000762939	
5.79224	-0.148315	0.000915527	
5.79041	-0.148315	0.000305176	
5.78827	-0.146179	-0.000305176	
5.78735	-0.143433	0.00183105	
5.78735	-0.143127	0.000610352	
5.78766	-0.139771	0.000457764	
5.78735	-0.138245	-0.000152588	
5.78735	-0.13916	-0.000457764	
5.78735	-0.136108	0.000305176	
5.78735	-0.134277	0.000457764	
5.78827	-0.133972	0	
5.78705	-0.131226	0	
5.78735	-0.1297	-0.000305176	
5.78613	-0.128479	0.00167847	
5.784	-0.126343	0.00106812	
5.78278	-0.124817	0.000305176	
5.78217	-0.123901	0.000610352	
5.78278	-0.121765	0.000610352	
5.78217	-0.119934	0.000152588	
5.78217	-0.115967	0.000152588	
5.78278	-0.114136	0.000305176	
5.78186	-0.114136	0.000305176	
5.7782	-0.111389	-0.000457764	
5.77759	-0.109253	0.000915527	
5.77759	-0.106201	0	
5.77759	-0.10498	0.000457764	
5.77789	-0.10376	0.00106812	
5.77759	-0.101318	0.0012207	
5.77789	-0.0997925	0.000457764	
5.7782	-0.0967407	0.000457764	
5.77728	-0.0952148	0.000762939	
5.77759	-0.0915527	0.000915527	
5.77759	-0.0900269	0	
5.77667	-0.0891113	0.000915527	
5.77301	-0.0866699	0.000305176	
5.77271	-0.0845337	0.000610352	
5.77209	-0.0817871	0.000457764	
5.77301	-0.0802612	0.000152588	
5.7724	-0.0765991	0.000610352	
5.7724	-0.0753784	0.000610352	
5.77271	-0.0726318	0.000762939	
5.77087	-0.0701904	0.000610352	
5.76904	-0.0674438	-0.000152588	
5.76813	-0.0653076	0.00137329	
5.76813	-0.0622559	0.000457764	
5.76782	-0.06073	0.000305176	
5.76782	-0.057373	0	
5.76782	-0.055542	-0.000457764	
5.76782	-0.0518799	0.000152588	
5.76721	-0.050354	0.000457764	
5.76752	-0.0482178	0	
5.76813	-0.0457764	0.000305176	
5.76721	-0.0427246	-0.000305176	
5.7666	-0.0408936	0.0012207	
5.76447	-0.0378418	0.00106812	
5.76355	-0.0360107	0.000305176	
5.76263	-0.0317383	0.000762939	
5.76233	-0.0311279	0.000762939	
5.76263	-0.0286865	0.000457764	
5.76294	-0.0231934	0.000152588	
5.76294	-0.0213623	-0.000152588	
5.76202	-0.0177002	0.000152588	
5.75867	-0.0161743	-0.000457764	
5.75867	-0.0128174	0.000915527	
5.75745	-0.0109863	0.000152588	
5.75836	-0.00823975	0.000457764	
5.75806	-0.00305176	0.0012207	
5.75775	-0.00152588	0.0012207	
5.75775	0.00152588	0.000610352	
5.75775	0.00335693	0.000457764	
5.75806	0.00579834	0.000457764	
5.75775	0.0106812	0.000762939	
5.75806	0.0128174	-0.000152588	
5.75653	0.0167847	0.00137329	
5.75409	0.0180054	0.000152588	
5.75287	0.0210571	0.000457764	
5.75287	0.0259399	0.000152588	
5.75317	0.0274658	-0.000152588	
5.75287	0.0308228	0.000457764	
5.75348	0.0354004	0.000915527	
5.75256	0.038147	0.000762939	
5.75165	0.0411987	0.000457764	
5.74982	0.0427246	-0.000152588	
5.74829	0.0454712	0.00152588	
5.74799	0.0500488	0.000762939	
5.74799	0.0524902	0.000305176	
5.74768	0.0558472	-0.000152588	
5.74799	0.0601196	-0.000457764	
5.74768	0.0619507	0.000457764	
5.7486	0.0653076	0	
5.74799	0.0708008	0.000152588	
5.74829	0.0714111	0.000152588	
5.74768	0.0753784	-0.000152588	
5.74768	0.0793457	0.00137329	
5.74799	0.0808716	0.000762939	
5.74829	0.0845337	0	
5.74799	0.0888062	0.000915527	
5.74829	0.0909424	0.000457764	
5.74768	0.0942993	0.000152588	
5.74768	0.098877	0.000152588	
5.74768	0.100403	-0.000152588	
5.74707	0.10376	0.000305176	
5.74371	0.108337	-0.000305176	
5.7431	0.110168	0.000915527	
5.74219	0.11261	0.000152588	
5.7431	0.118713	0.000457764	
5.7431	0.119934	0.00137329	
5.74249	0.123291	0.00137329	
5.7431	0.128174	0.000457764	
5.7431	0.1297	0.000152588	
5.74341	0.133057	0.000610352	
5.74341	0.138855	0.000610352	
5.7431	0.140381	-0.000152588	
5.74158	0.142822	0.000762939	
5.73914	0.14801	0	
5.73853	0.153198	0.000915527	
5.73822	0.155029	0.000305176	
5.73792	0.15686	0.000152588	
5.73822	0.162048	0.000457764	
5.73792	0.16449	0.000762939	
5.73792	0.167847	0.000915527	
5.737	0.172119	0.000457764	
5.73395	0.174561	-0.000305176	
5.73334	0.177307	0.0012207	
5.73303	0.181274	0.000610352	
5.73242	0.184021	0.000610352	
5.73334	0.187073	-0.000305176	
5.73364	0.192261	-0.000457764	
5.73364	0.193787	0.000305176	
5.73334	0.197144	0.000457764	
5.73303	0.201721	0	
5.73303	0.206299	0	
5.73334	0.20813	-0.000457764	
5.7312	0.211182	0.00137329	
5.72906	0.215759	0.000762939	
5.72876	0.218201	0.000305176	
5.72845	0.221558	0.000762939	
5.72845	0.22644	0.000457764	
5.72815	0.227966	0.000457764	
5.72876	0.231628	-0.000152588	
5.72784	0.236206	0	
5.72723	0.237732	0.000457764	
5.72388	0.241089	-0.000305176	
5.72357	0.245361	0.000610352	
5.72327	0.247498	0.000457764	
5.72296	0.250854	0.000457764	
5.72327	0.256348	0.0012207	
5.72327	0.256958	0.0012207	
5.72266	0.260925	0.000915527	
5.72327	0.264587	0	
5.72296	0.267639	0.000610352	
5.72266	0.270996	0.000457764	
5.72296	0.274658	-0.000152588	
5.72357	0.276794	0.00106812	
5.72357	0.280457	0	
5.72357	0.285034	0.000457764	
5.72327	0.28656	0.000610352	
5.72144	0.289917	0.000152588	
5.7196	0.294495	0.000457764	
5.71838	0.296936	0.000457764	
5.71869	0.300293	0.00106812	
5.71838	0.302124	0.00106812	
5.71899	0.305176	-0.000152588	
5.71838	0.309143	0.0012207	
5.71777	0.311584	0.000457764	
5.71838	0.314331	0.000457764	
5.71808	0.318909	-0.000152588	
5.71838	0.321655	-0.000305176	
5.71808	0.324707	0.000152588	
5.71838	0.326233	0.000610352	
5.71838	0.329895	0	
5.71838	0.333557	0.000305176	
5.71838	0.335693	-0.000457764	
5.71655	0.339355	0.00152588	
5.71411	0.344849	0.000915527	
5.7132	0.346069	0.000152588	
5.71381	0.349121	0.000762939	
5.7132	0.350342	0.000152588	
5.7132	0.353699	0.000762939	
5.7132	0.354919	0.000610352	
5.7135	0.358582	0	
5.71228	0.363159	0.000305176	
5.70953	0.365601	-0.000610352	
5.70831	0.369263	0.00106812	
5.70801	0.369873	0.000305176	
5.70862	0.37323	0.000610352	
5.70923	0.374756	0.0012207	
5.70801	0.378418	0.00137329	
5.70862	0.382996	0.000762939	
5.70831	0.384827	0	
5.70862	0.388184	0.00106812	
5.70862	0.390015	0.000457764	
5.70862	0.392761	0	
5.7074	0.394897	0.000762939	
5.70496	0.397949	0.000152588	
5.70404	0.39978	0.000457764	
5.70374	0.402832	0.000457764	
5.70404	0.404053	0.000457764	
5.70343	0.407715	0.000762939	
5.70404	0.409546	0.000457764	
5.70435	0.412598	0.000762939	
5.70404	0.414734	0.000610352	
5.70343	0.41748	-0.000152588	
5.70374	0.419312	0.00137329	
5.70374	0.422363	0.000457764	
5.70374	0.424194	0.000610352	
5.70404	0.426941	0	
5.70343	0.429077	-0.000152588	
5.70374	0.432434	0.000152588	
5.70343	0.434265	0.000457764	
5.70374	0.437927	0	
5.70313	0.438843	0.000457764	
5.70374	0.4422	-0.000457764	
5.70282	0.444336	0.00152588	
5.69946	0.444946	0.000610352	
5.69885	0.447388	0.000305176	
5.69855	0.448303	0.00106812	
5.69885	0.452271	0.000152588	
5.69855	0.453491	0.000305176	
5.69885	0.456543	0.000457764	
5.69855	0.458984	0.000152588	
5.69733	0.45929	0.000457764	
5.69427	0.461121	-0.000305176	
5.69427	0.463867	0.000762939	
5.69366	0.466309	0.000457764	
5.69336	0.468445	-0.000305176	
5.69397	0.469055	0.0012207	
5.69366	0.471802	0.000915527	
5.69427	0.473022	0.000915527	
5.69397	0.473633	0.000152588	
5.69366	0.476379	0.000610352	
5.69397	0.477905	0.000305176	
5.69397	0.47821	-0.000152588	
5.69397	0.481262	0.00106812	
5.69336	0.483093	0.000152588	
5.69366	0.48584	0.000610352	
5.69336	0.488586	0.000305176	
5.69366	0.488892	0.000152588	
5.69366	0.487976	0.000457764	
5.69336	0.491333	0.000610352	
5.69427	0.492554	0.000610352	
5.69244	0.493164	0.000762939	
5.68939	0.4953	0	
5.68909	0.497742	0.000915527	
5.68878	0.497437	0.000457764	
5.68939	0.501404	0.000610352	
5.68878	0.50293	0	
5.68878	0.503845	-0.000305176	
5.68817	0.50293	0	
5.68909	0.505676	0.000305176	
5.68817	0.507202	0	
5.68909	0.506897	0.000305176	
5.68878	0.508728	-0.000610352	
5.68726	0.510254	0.00183105	
5.68542	0.51239	0.000915527	
5.6839	0.513	0.000457764	
5.6842	0.51239	0.000915527	
5.6839	0.515442	0.000305176	
5.68359	0.517273	0.000457764	
5.68359	0.517578	0.000152588	
5.68359	0.517883	-0.000305176	
5.6839	0.52063	0.000305176	
5.68359	0.522766	-0.000915527	
5.6842	0.522766	0.000762939	
5.68451	0.522156	0.000610352	
5.6842	0.522766	0.000610352	
5.6842	0.522766	0.00106812	
5.68359	0.525818	0.00106812	
5.6839	0.527344	0.0012207	
5.68359	0.527649	0.000610352	
5.68359	0.527954	0.000610352	
5.68359	0.526733	0.000762939	
5.68359	0.527344	-0.000305176	
5.68268	0.530701	0.000915527	
5.67871	0.531311	0.000152588	
5.67902	0.531616	0.000457764	
5.67902	0.532532	0.000152588	
5.67932	0.532532	0	
5.67902	0.533142	0.000457764	
5.67871	0.532837	0.000305176	
5.67932	0.532532	0.000915527	
5.67749	0.535278	0.000457764	
5.67505	0.537109	-0.000152588	
5.67383	0.53772	0.000915527	
5.67474	0.537109	0.000457764	
5.67474	0.536499	0.000762939	
5.67444	0.53772	0	
5.67444	0.537109	-0.000152588	
5.67474	0.537109	-0.000152588	
5.67352	0.53833	0.000610352	
5.67474	0.536499	0	
5.67413	0.537415	0.000305176	
5.67383	0.536499	-0.000305176	
5.67413	0.537415	0.00137329	
5.67383	0.540466	0.000915527	
5.67413	0.541992	0.000457764	
5.67413	0.542603	0.000610352	
5.67444	0.541687	0.000457764	
5.67383	0.542297	0.000305176	
5.67413	0.542297	0.000152588	
5.67413	0.542297	-0.000152588	
5.67291	0.542908	0.000152588	
5.67047	0.541992	-0.000305176	
5.66986	0.541992	0.000915527	
5.66986	0.542603	0.000610352	
5.66925	0.541992	0.000305176	
5.66925	0.541687	0.000610352	
5.66925	0.542603	0.0012207	
5.66986	0.542603	0.000610352	
5.66956	0.542603	0	
5.66956	0.541992	0.000457764	
5.66956	0.542297	0.000457764	
5.66895	0.542603	-0.000305176	
5.66925	0.539551	0.00106812	
5.66895	0.537415	0	
5.66925	0.536804	0.000305176	
5.66925	0.537109	0.000305176	
5.66895	0.537415	0	
5.66864	0.537109	0.000762939	
5.66956	0.53772	0.000610352	
5.66925	0.536804	0.000762939	
5.66772	0.538025	0.000457764	
5.66467	0.53772	-0.000305176	
5.66406	0.537109	0.00137329	
5.66467	0.537415	0.000610352	
5.66406	0.537415	0.00106812	
5.66467	0.538025	-0.000152588	
5.66345	0.534668	-0.000457764	
5.66406	0.533142	0.000610352	
5.66467	0.532837	0.000610352	
5.66406	0.532227	0	
5.66437	0.532227	0.000610352	
5.66376	0.531921	-0.000457764	
5.66467	0.532227	0.00167847	
5.66406	0.532837	0.000915527	
5.66498	0.529785	0.000457764	
5.66406	0.527344	0.000457764	
5.66467	0.527344	0.000610352	
5.66467	0.527649	0.000610352	
5.66406	0.527344	-0.000152588	
5.66437	0.527344	0.000152588	
5.66254	0.527649	0.000457764	
5.6604	0.524902	-0.000305176	
5.65948	0.523071	0.000915527	
5.65948	0.522461	0.000610352	
5.65979	0.522156	0.000152588	
5.65948	0.522766	0.000762939	
5.65918	0.522766	0.00137329	
5.65948	0.519714	0.000152588	
5.65918	0.517883	0	
5.65948	0.517883	0.000457764	
5.65918	0.517578	0.000610352	
5.65918	0.517578	-0.000610352	
5.65979	0.515137	0.000915527	
5.65979	0.513611	0.000152588	
5.65979	0.512085	0.000457764	
5.65979	0.51239	0.000457764	
5.65887	0.513611	-0.000152588	
5.65887	0.509949	0.000457764	
5.65948	0.509033	0.000610352	
5.65918	0.508118	0.000762939	
5.65948	0.508118	0.000762939	
5.65948	0.504456	-0.000152588	
5.65948	0.50354	0.00137329	
5.65918	0.50293	0.000457764	
5.65796	0.50354	0.000457764	
5.65552	0.500183	-0.000152588	
5.65491	0.498352	-0.000305176	
5.6543	0.498352	0.000457764	
5.6546	0.498047	0.000457764	
5.65369	0.49469	0.000152588	
5.6543	0.493774	0.000152588	
5.6543	0.493469	-0.000152588	
5.6546	0.493469	0.00152588	
5.65399	0.489807	0.00106812	
5.6543	0.488892	0.000610352	
5.65552	0.488586	0.000762939	
5.6543	0.488586	0.000457764	
5.6546	0.485229	0.000457764	
5.6543	0.484314	0.000152588	
5.6546	0.483093	-0.000457764	
5.6546	0.480042	0.000457764	
5.6546	0.478821	-0.000457764	
5.6543	0.47821	0.000915527	
5.65491	0.475464	0.000610352	
5.6543	0.473022	0.000610352	
5.6546	0.474243	0.000915527	
5.6546	0.473633	0.00137329	
5.65491	0.470886	0.000610352	
5.65491	0.46936	0.000305176	
5.65369	0.46936	0.000305176	
5.6543	0.466309	0.000457764	
5.6546	0.463867	-0.000152588	
5.65247	0.464172	0.000762939	
5.65033	0.461426	0.000152588	
5.65002	0.4599	0.000457764	
5.64941	0.458984	0.000305176	
5.64972	0.455933	0.000152588	
5.64972	0.454102	0.000762939	
5.64972	0.454102	0.00106812	
5.64911	0.45166	0.00106812	
5.64972	0.450745	0.000762939	
5.64972	0.449524	-0.000152588	
5.64972	0.445862	0.00137329	
5.64941	0.444641	0.000152588	
5.6488	0.441895	0.000762939	
5.65002	0.440063	0.000305176	
5.64972	0.439453	-0.000610352	
5.64911	0.436401	0.000305176	
5.64941	0.434875	0.000610352	
5.64972	0.43457	0.000152588	
5.64972	0.431824	0.000305176	
5.6488	0.429993	-0.000152588	
5.64911	0.429382	0.00167847	
5.64972	0.426636	0.0012207	
5.64972	0.42572	0.000762939	
5.64911	0.422058	0.000457764	
5.65002	0.419922	0.000610352	
5.65002	0.419922	0.000152588	
5.64911	0.416565	0	
5.64972	0.415039	-0.000457764	
5.64819	0.415039	0	
5.64575	0.412292	-0.000305176	
5.64453	0.410461	0.000915527	
5.64484	0.406799	0.000610352	
5.64484	0.405273	0	
5.64453	0.405273	0.000915527	
5.64362	0.402222	0.00183105	
5.64484	0.401001	0.000610352	
5.64484	0.397339	0.000305176	
5.64453	0.394897	0.000610352	
5.64453	0.394287	0.000457764	
5.64392	0.392151	0.000152588	
5.64514	0.390625	0.0012207	
5.64514	0.387573	0	
5.64453	0.386047	0.000305176	
5.64362	0.382385	0.000457764	
5.64484	0.381165	0.000152588	
5.64453	0.380249	0.000457764	
5.64484	0.377197	0.000762939	
5.64484	0.376587	0.0012207	
5.64392	0.372925	0.000915527	
5.64484	0.371094	-0.000152588	
5.64484	0.370178	0.00106812	
5.64392	0.367737	0.000915527	
5.64484	0.366211	0.000762939	
5.64484	0.362549	0.000152588	
5.64484	0.361328	-0.000610352	
5.64484	0.358582	0.000457764	
5.64423	0.356445	0.000305176	
5.64484	0.35553	0.000152588	
5.64453	0.353394	0.000152588	
5.64362	0.351868	-0.000305176	
5.64301	0.3479	0.00167847	
5.64056	0.345764	0.000915527	
5.63995	0.346985	0.000457764	
5.63995	0.343323	0.000305176	
5.63965	0.341492	0.000152588	
5.63904	0.33905	0.000305176	
5.63965	0.336304	-0.000152588	
5.63965	0.334167	0	
5.63995	0.331421	0.000305176	
5.63995	0.331421	-0.000457764	
5.63965	0.328369	0.00106812	
5.63934	0.326538	0.000915527	
5.63995	0.323181	0.000762939	
5.63965	0.322266	0.000762939	
5.63995	0.318298	0.0012207	
5.63965	0.317383	0.000610352	
5.63934	0.317383	0.000152588	
5.63995	0.313721	0.000762939	
5.63904	0.312195	0.000457764	
5.63965	0.309143	-0.000305176	
5.63934	0.308228	0.000762939	
5.63904	0.304565	0.000152588	
5.63934	0.302429	0.000762939	
5.63965	0.302124	0.000305176	
5.63904	0.299683	0.000152588	
5.63995	0.297852	0.000457764	
5.63904	0.294495	0.000305176	
5.63995	0.292358	0.000915527	
5.63934	0.289917	0.000762939	
5.63965	0.287476	0	
5.63995	0.28717	0.0012207	
5.63934	0.284119	0.000152588	
5.64026	0.283203	0.000457764	
5.63873	0.279541	-0.000152588	
5.63965	0.27771	-0.000457764	
5.63965	0.275574	0.000305176	
5.63995	0.272522	0.000305176	
5.63965	0.272217	-0.000152588	
5.63995	0.270081	0.000762939	
5.63965	0.267944	-0.000457764	
5.63904	0.264587	0.00152588	
5.63995	0.263062	0.0012207	
5.63995	0.262756	0.000457764	
5.63995	0.259705	0.000457764	
5.63965	0.259399	0.000457764	
5.63965	0.255737	0.000457764	
5.63904	0.253296	0.000457764	
5.63904	0.249939	-0.000457764	
5.63873	0.248718	0	
5.63538	0.248108	-0.000457764	
5.63507	0.245667	0.0012207	
5.63538	0.244141	0.000610352	
5.63446	0.240479	0	
5.63446	0.239258	0.000762939	
5.63446	0.238342	0.000915527	
5.63446	0.235901	0.000762939	
5.63446	0.233459	0.000305176	
5.63477	0.230713	0.00106812	
