model_ppg1.acq
0.5 msec/sample
3 channels
RSP, X, RSPEC-R
Volts
PPG, X, PPGED-R
Volts
ECG, Y, RSPEC-R
mV
CH1	CH2	CH13	
246342	246342	246342	
3.93097	0.0628662	0.000762939	
3.9325	0.0622559	0.000457764	
3.93372	0.0604248	0.000305176	
3.93372	0.0585938	-0.000152588	
3.93524	0.0576782	0.000305176	
3.93799	0.0570679	0.000152588	
3.93799	0.0576782	0	
3.93921	0.0570679	0.000457764	
3.93951	0.0558472	0.000457764	
3.94257	0.0531006	0.00106812	
3.94348	0.0531006	0.00137329	
3.94318	0.0527954	0.000762939	
3.94318	0.0524902	0.000610352	
3.94592	0.0521851	0.000457764	
3.94806	0.0524902	0.000457764	
3.94775	0.0509644	0.000305176	
3.94836	0.0482178	0.000305176	
3.95081	0.0476074	0	
3.95264	0.0473022	0.000457764	
3.95294	0.0476074	0.000152588	
3.95325	0.0479126	0	
3.95508	0.0454712	0.000305176	
3.95752	0.0430298	0.000915527	
3.95844	0.0427246	0.000915527	
3.95844	0.0427246	0.000610352	
3.95996	0.0424194	0.000457764	
3.9624	0.0430298	0.000762939	
3.96332	0.0424194	0.000610352	
3.96301	0.0405884	0.000610352	
3.96301	0.038147	-0.000152588	
3.96576	0.0375366	-0.000152588	
3.96759	0.038147	0.000457764	
3.9682	0.0375366	0.000457764	
3.96759	0.0375366	0.000152588	
3.96973	0.0372314	0.000305176	
3.97247	0.0378418	0.000152588	
3.97217	0.0357056	0.00106812	
3.97339	0.0335693	0.000610352	
3.97461	0.0332642	0.000762939	
3.97797	0.0326538	0.000152588	
3.97766	0.032959	0.000457764	
3.97736	0.0326538	0.000152588	
3.9798	0.0323486	0	
3.98163	0.0308228	0.000152588	
3.98315	0.0286865	0.000152588	
3.98285	0.027771	0	
3.98285	0.0280762	0.000305176	
3.98468	0.0283813	0.000152588	
3.98682	0.0280762	0.000457764	
3.98743	0.027771	0.00106812	
3.98773	0.0280762	0.00137329	
3.98987	0.0289917	0.000610352	
3.99139	0.0253296	0.000610352	
3.99292	0.0241089	0.000610352	
3.99261	0.0238037	0.00106812	
3.99292	0.0231934	0.000457764	
3.99506	0.0234985	0.000152588	
3.99658	0.0231934	0	
3.99689	0.0238037	0.000457764	
3.9978	0.0234985	0.000305176	
3.99933	0.0222778	0.000152588	
4.00146	0.0210571	0.000305176	
4.00269	0.0189209	0.000915527	
4.00238	0.0183105	0.000457764	
4.00208	0.0180054	0.000762939	
4.00391	0.0183105	0.000610352	
4.00604	0.0186157	0.000762939	
4.00726	0.0183105	0.000457764	
4.00726	0.0180054	0.000915527	
4.01031	0.0180054	-0.000152588	
4.01154	0.0161743	-0.000457764	
4.01245	0.0137329	0.000457764	
4.01215	0.0131226	0.000305176	
4.01276	0.0134277	-0.000152588	
4.01459	0.0131226	0.000610352	
4.01642	0.0131226	0.000305176	
4.01733	0.0131226	0.000915527	
4.01733	0.0128174	0.000610352	
4.01917	0.0131226	0.000457764	
4.02161	0.0131226	0.000610352	
4.02222	0.0128174	0.000762939	
4.02252	0.0109863	0	
4.02222	0.00915527	-0.000152588	
4.02435	0.00823975	0.000152588	
4.02679	0.00823975	0	
4.0271	0.00793457	0	
4.0274	0.0088501	0.000152588	
4.0271	0.00854492	0	
4.02924	0.00823975	0.000457764	
4.03168	0.00823975	0.00137329	
4.03168	0.00823975	0.00106812	
4.03198	0.00854492	0.000457764	
4.03503	0.00854492	0.000457764	
4.03595	0.00671387	0.000762939	
4.03625	0.00396729	0.000457764	
4.03656	0.00274658	0.000305176	
4.03656	0.00396729	0.000152588	
4.039	0.00305176	0.000152588	
4.04144	0.00366211	0.000610352	
4.04114	0.00244141	-0.000152588	
4.04266	0.00335693	0.000305176	
4.04236	0.00305176	0.000457764	
4.04449	0.00366211	0.0012207	
4.04633	0.00335693	0.000915527	
4.04724	0.00366211	0.000610352	
4.04724	0.00335693	0.000762939	
4.04724	0.00152588	0.000457764	
4.04938	-0.0012207	0.000457764	
4.05121	-0.000915527	0.000457764	
4.05121	-0.00152588	-0.000305176	
4.05212	-0.000915527	-0.000610352	
4.05212	-0.0012207	0.000305176	
4.05426	-0.00152588	0.000457764	
4.05609	-0.0012207	0.000305176	
4.0567	-0.00152588	0.000152588	
4.05701	-0.00152588	0	
4.0564	-0.00183105	0.00106812	
4.05884	-0.00152588	0.000915527	
4.06067	-0.0012207	0.000305176	
4.06128	-0.00152588	0.000457764	
4.06219	-0.000610352	0.000305176	
4.06128	-0.00152588	0.000152588	
4.06372	-0.00335693	0.000152588	
4.06586	-0.00488281	-0.000152588	
4.06738	-0.00610352	0.000457764	
4.06677	-0.00610352	0.000457764	
4.06647	-0.00671387	0.000305176	
4.06921	-0.00579834	0.000305176	
4.07074	-0.00640869	0.000305176	
4.07135	-0.00640869	0.000915527	
4.07166	-0.00610352	0.00183105	
4.07166	-0.00610352	0.000457764	
4.07379	-0.00610352	0.000915527	
4.07593	-0.00610352	0.000762939	
4.07623	-0.00610352	0.000610352	
4.07623	-0.00579834	0.000610352	
4.07623	-0.00549316	0.000610352	
4.07806	-0.00610352	0	
4.08051	-0.00640869	0.000762939	
4.08173	-0.00579834	0.000457764	
4.08142	-0.00549316	0.000457764	
4.08203	-0.00823975	0.000610352	
4.08417	-0.0106812	0.000762939	
4.0863	-0.0109863	0.00106812	
4.086	-0.0112915	0.000610352	
4.08691	-0.010376	0.000762939	
4.086	-0.0112915	0.000457764	
4.08844	-0.0115967	0.000610352	
4.09058	-0.0106812	0.000915527	
4.09119	-0.0109863	-0.000457764	
4.09119	-0.0106812	-0.000457764	
4.09149	-0.0109863	0.000305176	
4.09088	-0.0106812	0.000762939	
4.09302	-0.0112915	0.000305176	
4.09546	-0.0106812	0.000305176	
4.09576	-0.0109863	0.000457764	
4.09607	-0.010376	0.00106812	
4.09637	-0.0109863	0.000457764	
4.09851	-0.0119019	0.000610352	
4.10034	-0.010376	0.000457764	
4.10095	-0.0109863	0.000610352	
4.10095	-0.0109863	0.000152588	
4.10095	-0.0112915	0	
4.10156	-0.0109863	0	
4.1037	-0.0109863	0	
4.10492	-0.0109863	0.000457764	
4.10645	-0.0128174	0	
4.10645	-0.015564	0.000305176	
4.10583	-0.0167847	0.000610352	
4.10767	-0.015564	0.000762939	
4.11133	-0.0161743	0.00106812	
4.11072	-0.0161743	0.000610352	
4.11102	-0.0158691	0.000610352	
4.11163	-0.0158691	0.000915527	
4.11133	-0.0164795	0.000610352	
4.11316	-0.0158691	0.000610352	
4.1156	-0.0164795	0.000305176	
4.11621	-0.0161743	0.000152588	
4.11591	-0.015564	0.000762939	
4.1153	-0.0164795	0.000305176	
4.11774	-0.0158691	0.000305176	
4.12018	-0.0161743	0.000457764	
4.12109	-0.0158691	0.0012207	
4.12048	-0.0161743	0.000915527	
4.12109	-0.0161743	0.000610352	
4.12048	-0.0158691	0.000457764	
4.12262	-0.0161743	0.000915527	
4.12506	-0.015564	0.000457764	
4.12476	-0.0158691	0.000762939	
4.12628	-0.0161743	-0.000305176	
4.12567	-0.0158691	-0.000152588	
4.12598	-0.015564	0.000152588	
4.12842	-0.0158691	0.000305176	
4.12994	-0.0158691	0.000305176	
4.13086	-0.0161743	0.000305176	
4.13025	-0.0161743	0.000305176	
4.13025	-0.0180054	0.000915527	
4.13147	-0.0204468	0.000915527	
4.13269	-0.0213623	0.000305176	
4.13483	-0.0213623	0.000457764	
4.13574	-0.0210571	0.000915527	
4.13574	-0.0204468	0.000457764	
4.13574	-0.0210571	0	
4.13635	-0.0216675	-0.000152588	
4.13757	-0.020752	0.000305176	
4.14001	-0.0213623	0.000152588	
4.14124	-0.0210571	0.000152588	
4.14093	-0.0213623	0.000457764	
4.14001	-0.020752	0.000152588	
4.14124	-0.0210571	0.0012207	
4.14063	-0.0201416	0.0012207	
4.14307	-0.0213623	0.000762939	
4.1449	-0.020752	0.000610352	
4.14581	-0.0216675	0.000762939	
4.14581	-0.0210571	0.000915527	
4.14612	-0.0213623	0.000610352	
4.14551	-0.0216675	0.000457764	
4.14795	-0.0210571	0.000152588	
4.15009	-0.0210571	0.000457764	
4.151	-0.0210571	0.000457764	
4.15131	-0.0213623	0.000305176	
4.14978	-0.0210571	0.000610352	
4.15009	-0.020752	0.000762939	
4.15314	-0.020752	0.00137329	
4.15527	-0.020752	0.000915527	
4.15497	-0.0201416	0.000457764	
4.15558	-0.0198364	0.000610352	
4.15497	-0.0231934	0.000457764	
4.15497	-0.0253296	0.000457764	
4.15436	-0.0259399	-0.000457764	
4.15558	-0.0256348	-0.000305176	
4.15588	-0.0256348	-0.000152588	
4.15741	-0.0256348	0.000610352	
4.16168	-0.0259399	0	
4.16473	-0.0262451	0.000152588	
4.16473	-0.0259399	0.000152588	
4.16534	-0.0259399	0.00106812	
4.16534	-0.0256348	0.000610352	
4.16504	-0.0259399	0.000610352	
4.16504	-0.0262451	0.000305176	
4.16718	-0.0256348	0.000457764	
4.16992	-0.0250244	0.000457764	
4.17023	-0.0256348	0	
4.17023	-0.0259399	-0.000152588	
4.17053	-0.0253296	0.000152588	
4.17023	-0.0262451	0.000457764	
4.17023	-0.0256348	0.000305176	
4.17297	-0.0253296	0.000305176	
4.1748	-0.0256348	0.000610352	
4.17419	-0.0253296	0.00106812	
4.17542	-0.0259399	0.0012207	
4.1748	-0.0259399	0.000610352	
4.17542	-0.0253296	0.000152588	
4.17542	-0.0259399	0.000610352	
4.17725	-0.0262451	0.000762939	
4.17969	-0.0256348	0.000915527	
4.17999	-0.0280762	0.000610352	
4.1806	-0.0302124	0.000152588	
4.1806	-0.0302124	0.000610352	
4.1803	-0.0302124	0.000305176	
4.1806	-0.0308228	0.000305176	
4.18243	-0.0308228	0.000610352	
4.18365	-0.0305176	0.00106812	
4.18518	-0.0311279	0.000762939	
4.18518	-0.0305176	0.000457764	
4.18518	-0.0308228	0.000610352	
4.1861	-0.0311279	0.000610352	
4.18518	-0.0308228	0.000457764	
4.18488	-0.0308228	0.000457764	
4.1861	-0.0308228	0	
4.18915	-0.0305176	-0.000610352	
4.18976	-0.0305176	-0.000152588	
4.19037	-0.0308228	0.000457764	
4.19037	-0.0314331	-0.000152588	
4.18976	-0.0302124	0	
4.19006	-0.0311279	0.000152588	
4.19037	-0.0314331	0.000915527	
4.1922	-0.0308228	0.000457764	
4.19373	-0.0314331	0.000610352	
4.19495	-0.0311279	0.000610352	
4.19495	-0.0302124	0.000457764	
4.19525	-0.0326538	0.000457764	
4.19495	-0.0354004	0.000305176	
4.19464	-0.0357056	-0.000152588	
4.19556	-0.0354004	0	
4.19678	-0.0357056	0	
4.19983	-0.0357056	0.000457764	
4.20013	-0.0360107	0.000305176	
4.20013	-0.0357056	0.000152588	
4.20013	-0.0350952	0.0012207	
4.20013	-0.0354004	0.0012207	
4.19952	-0.0354004	0.000610352	
4.20013	-0.0354004	0.000457764	
4.20258	-0.0357056	0.000915527	
4.2041	-0.0357056	0.00106812	
4.20471	-0.0354004	0.000457764	
4.20441	-0.0360107	0.000152588	
4.20471	-0.0354004	0	
4.20441	-0.0354004	0.000457764	
4.20441	-0.0357056	0.000457764	
4.20502	-0.0357056	0.000152588	
4.20502	-0.0354004	0.000610352	
4.20654	-0.0360107	0.000915527	
4.20929	-0.0354004	0.000915527	
4.2099	-0.0372314	0.000457764	
4.21021	-0.039978	0.000457764	
4.2099	-0.0408936	0.000457764	
4.21021	-0.0408936	0.000457764	
4.21051	-0.0405884	0.000457764	
4.20898	-0.0405884	0	
4.21173	-0.0405884	-0.000305176	
4.21356	-0.0408936	0.000152588	
4.21448	-0.0405884	0.000305176	
4.21478	-0.0405884	0.000305176	
4.21448	-0.0402832	0	
4.21509	-0.0405884	0.000457764	
4.21478	-0.0405884	0.000915527	
4.21509	-0.039978	0.000610352	
4.21448	-0.0405884	0.000457764	
4.21417	-0.0408936	0.000305176	
4.21661	-0.0408936	0.000762939	
4.21936	-0.039978	0	
4.21967	-0.0408936	0.000305176	
4.21906	-0.0402832	-0.000305176	
4.21936	-0.0402832	0.000305176	
4.21967	-0.0427246	0	
4.21997	-0.0445557	0.000152588	
4.21997	-0.045166	0.000305176	
4.21936	-0.0457764	0.000610352	
4.22241	-0.0454712	0.000915527	
4.22424	-0.0454712	0.0012207	
4.22455	-0.0454712	0.000762939	
4.22455	-0.045166	0.000305176	
4.22516	-0.0460815	0.000915527	
4.22485	-0.045166	0.000915527	
4.22455	-0.0454712	0.000610352	
4.22455	-0.0454712	0.000305176	
4.22455	-0.0460815	0.000305176	
4.22455	-0.0454712	0.000762939	
4.22668	-0.0457764	0.000457764	
4.22852	-0.0457764	0.000152588	
4.22943	-0.0454712	0.000457764	
4.22974	-0.0457764	0.00106812	
4.22943	-0.0454712	0.00137329	
4.22974	-0.0448608	0.000915527	
4.22974	-0.0469971	0.000762939	
4.22943	-0.0500488	0.000610352	
4.22974	-0.0506592	0.000457764	
4.22913	-0.0509644	0.000457764	
4.22913	-0.050354	0	
4.23096	-0.050354	-0.000152588	
4.2334	-0.0506592	0.000305176	
4.23431	-0.0497437	0.000610352	
4.23462	-0.050354	0.000305176	
4.23431	-0.050354	-0.000152588	
4.23492	-0.0506592	0.000305176	
4.23431	-0.050354	0.000762939	
4.23401	-0.050354	0.000762939	
4.23401	-0.0506592	0.000457764	
4.23462	-0.0500488	0.000457764	
4.23431	-0.0497437	0.000915527	
4.23676	-0.0500488	0	
4.23828	-0.0500488	0.000305176	
4.24011	-0.0509644	-0.000152588	
4.23981	-0.0521851	0.000305176	
4.2395	-0.0546265	0.000152588	
4.2395	-0.0558472	0.000152588	
4.2392	-0.0558472	0.000305176	
4.2392	-0.055542	0.000152588	
4.24011	-0.0546265	0.00106812	
4.2392	-0.0546265	0.00167847	
4.2392	-0.055542	0.000457764	
4.2395	-0.0552368	0.000305176	
4.2395	-0.055542	0.000610352	
4.24103	-0.0549316	0.000610352	
4.24347	-0.0549316	0.000457764	
4.24347	-0.0558472	0.000152588	
4.24438	-0.0558472	0.000152588	
4.24438	-0.055542	0	
4.24438	-0.0558472	0.000305176	
4.245	-0.055542	-0.000152588	
4.24408	-0.0552368	0.000610352	
4.24469	-0.057373	0.000610352	
4.24377	-0.0601196	0.00106812	
4.245	-0.0598145	0.000457764	
4.24438	-0.0604248	0.000915527	
4.24408	-0.0610352	0.000762939	
4.24683	-0.06073	0.000305176	
4.24835	-0.0604248	0.000305176	
4.24927	-0.0604248	0.000152588	
4.24957	-0.0604248	-0.000305176	
4.24957	-0.0610352	0.000305176	
4.24896	-0.0604248	0.000305176	
4.24957	-0.0595093	0.000152588	
4.24927	-0.0601196	0.000152588	
4.24988	-0.0604248	-0.000152588	
4.24896	-0.0595093	0.000457764	
4.24896	-0.0601196	0.000762939	
4.24927	-0.06073	0.000457764	
4.24927	-0.0622559	0.000457764	
4.24896	-0.0643921	0.000457764	
4.25049	-0.0650024	0	
4.25415	-0.0656128	0.000305176	
4.25446	-0.0650024	0	
4.25385	-0.0653076	0.000305176	
4.25446	-0.0653076	0.000152588	
4.25354	-0.0650024	0	
4.25415	-0.0653076	0.000762939	
4.25476	-0.0653076	0.000305176	
4.25385	-0.0653076	0.00106812	
4.25354	-0.0650024	0.0012207	
4.25415	-0.0653076	0.000762939	
4.25446	-0.0656128	0.000762939	
4.25476	-0.0643921	0.000762939	
4.25385	-0.0650024	0.000762939	
4.25415	-0.0650024	0.000915527	
4.25415	-0.0668335	0.000305176	
4.25659	-0.0695801	-0.000152588	
4.25812	-0.0704956	0.000762939	
4.25873	-0.0698853	0.000305176	
4.25903	-0.0704956	0.000305176	
4.25934	-0.0698853	0.000610352	
4.25934	-0.0698853	0.000762939	
4.25934	-0.0704956	0.000762939	
4.25903	-0.0695801	0.000762939	
4.25934	-0.0698853	0.000762939	
4.25934	-0.0698853	0.000762939	
4.25934	-0.0701904	0.000305176	
4.25934	-0.0695801	0.000610352	
4.25964	-0.0695801	-0.000152588	
4.25903	-0.0704956	-0.000457764	
4.25934	-0.0701904	0.000152588	
4.25903	-0.0704956	0.000457764	
4.25934	-0.0717163	-0.000305176	
4.25934	-0.0747681	0.000457764	
4.25934	-0.0747681	0	
4.25934	-0.0744629	0.000762939	
4.25934	-0.0750732	0.000610352	
4.26056	-0.0741577	0.000305176	
4.26331	-0.0753784	0.000457764	
4.26453	-0.0750732	0.000762939	
4.26453	-0.0750732	0.000305176	
4.26422	-0.0747681	0	
4.26331	-0.0750732	-0.000152588	
4.26422	-0.0747681	0	
4.26392	-0.0747681	0.000152588	
4.26422	-0.0747681	0.000152588	
4.26392	-0.0750732	0.000152588	
4.26361	-0.0747681	0.000305176	
4.26453	-0.0747681	0.000915527	
4.26422	-0.0756836	0.00106812	
4.26392	-0.0772095	0.000762939	
4.26422	-0.0790405	0.000457764	
4.26422	-0.0793457	0.000762939	
4.26392	-0.0802612	0.000610352	
4.26392	-0.0799561	0.000762939	
4.26483	-0.0796509	0.000152588	
4.26453	-0.0805664	0.000152588	
4.26453	-0.0793457	0.000457764	
4.26361	-0.0802612	0.000457764	
4.26361	-0.0793457	0.000457764	
4.26636	-0.0796509	0.000610352	
4.2688	-0.0793457	0.000762939	
4.27002	-0.0793457	0.0012207	
4.2688	-0.0796509	0.000762939	
4.2688	-0.0793457	0.000915527	
4.2691	-0.0796509	0.000762939	
4.26941	-0.0796509	0.000152588	
4.26941	-0.0799561	0.000762939	
4.26849	-0.0790405	-0.000152588	
4.26941	-0.0817871	-0.000305176	
4.2688	-0.0839233	0.000305176	
4.26849	-0.0842285	0.000610352	
4.2691	-0.0842285	0.000305176	
4.2691	-0.0848389	0.000305176	
4.2691	-0.085144	0	
4.2688	-0.0845337	0.000610352	
4.2691	-0.085144	0.00106812	
4.26941	-0.0845337	0.000457764	
4.2688	-0.0842285	0.000610352	
4.26941	-0.0842285	0.000610352	
4.2688	-0.0845337	0.000457764	
4.2688	-0.0848389	0.000305176	
4.26941	-0.0848389	0	
4.2691	-0.085144	0	
4.2688	-0.0845337	0	
4.2691	-0.0857544	0.000152588	
4.2688	-0.0848389	0.000457764	
4.27094	-0.0845337	0.000457764	
4.27368	-0.0845337	0.000762939	
4.27399	-0.0866699	0.00106812	
4.27429	-0.0891113	0.000762939	
4.27429	-0.0891113	0.000457764	
4.27399	-0.0894165	0.000915527	
4.27429	-0.0897217	0.000762939	
4.27399	-0.0888062	0.000457764	
4.27399	-0.0897217	0.000152588	
4.27368	-0.0894165	-0.000152588	
4.27338	-0.0894165	0.000457764	
4.27368	-0.0894165	0.000457764	
4.27368	-0.0900269	0.000457764	
4.27429	-0.0897217	0.000457764	
4.27368	-0.0900269	0.000915527	
4.2746	-0.0894165	0.000915527	
4.27429	-0.0891113	0.000915527	
4.27399	-0.0894165	0.000915527	
4.27277	-0.090332	0.000762939	
4.27368	-0.0894165	0.000457764	
4.27338	-0.0897217	0.000762939	
4.27368	-0.0894165	0.000457764	
4.27429	-0.0894165	-0.000305176	
4.27368	-0.0915527	0.000152588	
4.27399	-0.093689	0.000610352	
4.27368	-0.0942993	0	
4.27368	-0.0949097	0.000305176	
4.27368	-0.0939941	0	
4.27429	-0.0946045	0.000610352	
4.27338	-0.0949097	0.000762939	
4.27399	-0.0946045	0.000457764	
4.27338	-0.0949097	0.000762939	
4.2749	-0.0946045	0.000610352	
4.27399	-0.0942993	0.000610352	
4.27429	-0.0949097	0	
4.27399	-0.0946045	-0.000152588	
4.27399	-0.0949097	0.000152588	
4.27338	-0.0946045	0.000152588	
4.27338	-0.0946045	0.000152588	
4.27368	-0.0942993	0.000610352	
4.27368	-0.093689	0.000457764	
4.27368	-0.0942993	0.000762939	
4.27399	-0.0946045	0.00137329	
4.27399	-0.0942993	0.000915527	
4.27338	-0.0946045	0.000152588	
4.27368	-0.09552	0.000457764	
4.27582	-0.0991821	0.000610352	
4.27795	-0.0994873	0.000762939	
4.27856	-0.0994873	0.000305176	
4.27917	-0.0994873	0	
4.27887	-0.0991821	0.000610352	
4.27856	-0.100098	0.000305176	
4.27887	-0.0997925	0.000305176	
4.27887	-0.0991821	0.000610352	
4.27917	-0.0991821	0.000762939	
4.27856	-0.0991821	0.0012207	
4.27948	-0.0991821	0.000762939	
4.27826	-0.0997925	0.000457764	
4.27887	-0.0994873	0.00106812	
4.27856	-0.0994873	0.000305176	
4.27856	-0.0994873	0.000457764	
4.27887	-0.0991821	-0.000152588	
4.27887	-0.0991821	-0.000457764	
4.27948	-0.098877	0.000305176	
4.27795	-0.0991821	0.000762939	
4.27917	-0.0997925	0	
4.27917	-0.0991821	0	
4.27887	-0.0997925	0.000457764	
4.27856	-0.0997925	0.000610352	
4.27887	-0.098877	0.000305176	
4.27887	-0.0997925	0.000457764	
4.27856	-0.101624	0.000457764	
4.27917	-0.10437	0.000610352	
4.27917	-0.104065	0.000305176	
4.27887	-0.104675	0	
4.27948	-0.10376	-0.000152588	
4.27887	-0.104675	0.000305176	
4.27917	-0.10437	0.000152588	
4.27917	-0.104675	0.000152588	
4.27979	-0.104675	0.000152588	
4.27826	-0.10437	0.000152588	
4.27948	-0.10376	0.000915527	
4.27887	-0.10437	0.0012207	
4.27856	-0.10498	0.000610352	
4.27887	-0.104675	0.000457764	
4.27704	-0.104065	0.000915527	
4.2746	-0.104675	0.000457764	
4.27429	-0.104675	0.000762939	
4.27429	-0.10437	0.000457764	
4.27338	-0.105286	0.000152588	
4.27429	-0.104065	0.000457764	
4.27429	-0.104065	0.000305176	
4.27399	-0.103455	0.000762939	
4.27399	-0.10376	0.000152588	
4.27368	-0.104065	0.000762939	
4.27429	-0.10437	0.0012207	
4.27368	-0.10498	0.000610352	
4.27399	-0.10498	0.000457764	
4.27368	-0.10437	0.00106812	
4.27368	-0.10437	0.000457764	
4.27338	-0.10437	0.000762939	
4.27368	-0.104065	-0.000152588	
4.27338	-0.10437	-0.000152588	
4.27399	-0.106201	0.000457764	
4.27368	-0.108643	0.000457764	
4.27368	-0.108948	-0.000305176	
4.27368	-0.109253	0.000152588	
4.27368	-0.109558	0	
4.27399	-0.109253	0.00106812	
4.27307	-0.109558	0.000610352	
4.27399	-0.108948	0.000610352	
4.27399	-0.109253	0.000457764	
4.27368	-0.108643	0.000305176	
4.27429	-0.108948	0.000152588	
4.27399	-0.109253	0.000305176	
4.27368	-0.109253	-0.000152588	
4.27429	-0.109558	0.000610352	
4.2746	-0.109253	0.000457764	
4.27429	-0.109253	-0.000152588	
4.2746	-0.108643	0.000457764	
4.27429	-0.108948	0.000457764	
4.27307	-0.108948	0.00106812	
4.27399	-0.108948	0.00137329	
4.27399	-0.109558	0.000762939	
4.2746	-0.108643	0.000457764	
4.27368	-0.108948	0.000762939	
4.27399	-0.108948	0.000762939	
4.27399	-0.109253	0.000915527	
4.27185	-0.108643	0.000305176	
4.26971	-0.109558	0.000305176	
4.2688	-0.109253	0.000762939	
4.26941	-0.108948	0.000762939	
4.2691	-0.108643	0.000305176	
4.26941	-0.109253	0.000610352	
4.2688	-0.109253	0.000457764	
4.26941	-0.108643	0.000915527	
4.2688	-0.109253	0.000457764	
4.2688	-0.108948	0.000457764	
4.26941	-0.109863	0.000762939	
4.26819	-0.109253	0.000610352	
4.2691	-0.109558	0.000762939	
4.2688	-0.109253	0	
4.26941	-0.109253	-0.000457764	
4.2688	-0.110168	0	
4.26941	-0.108948	0.000457764	
4.26849	-0.109253	0.000305176	
4.26819	-0.109253	0.000152588	
4.2688	-0.109253	0.000610352	
4.26819	-0.109253	0.000457764	
4.26941	-0.109558	0.000915527	
4.26941	-0.109558	0.000152588	
4.2688	-0.109253	0.000305176	
4.26849	-0.109253	0.000610352	
4.26666	-0.109558	0	
4.26483	-0.109253	0.000457764	
4.26483	-0.109253	-0.000152588	
4.26361	-0.108948	0	
4.26361	-0.109253	0.000457764	
4.26392	-0.109863	0.000457764	
4.26422	-0.109558	0.000457764	
4.26422	-0.109253	0.000305176	
4.26392	-0.109253	0.0012207	
4.26422	-0.109558	0.0012207	
4.26361	-0.108948	0.000915527	
4.26392	-0.108643	0.000305176	
4.26392	-0.109253	0.000915527	
4.26392	-0.109253	0.000915527	
4.26208	-0.109253	0.000305176	
4.26056	-0.109558	0.000152588	
4.25964	-0.109558	0	
4.25964	-0.109253	0.000305176	
4.25964	-0.109558	0.000305176	
4.25903	-0.109863	0.000305176	
4.25964	-0.109253	0.000915527	
4.25903	-0.108643	0.000610352	
4.25964	-0.109863	0.0012207	
4.25903	-0.108643	0.000610352	
4.25903	-0.108643	0.000610352	
4.25903	-0.109558	0.000762939	
4.25964	-0.108643	0.000305176	
4.25995	-0.109253	0.000762939	
4.25964	-0.109253	0	
4.25903	-0.109558	-0.000610352	
4.25903	-0.109558	0.000152588	
4.25751	-0.109253	0.000457764	
4.25568	-0.109253	0.000152588	
4.25446	-0.108948	0.000305176	
4.25415	-0.108948	0.000610352	
4.25415	-0.109253	0.000610352	
4.25385	-0.108948	0.000762939	
4.25385	-0.109558	0.000457764	
4.25446	-0.109863	0.000305176	
4.25446	-0.109558	0.000305176	
4.25415	-0.108948	0.000152588	
4.25415	-0.109863	0.000152588	
4.25354	-0.108948	-0.000152588	
4.25476	-0.109558	0.000305176	
4.25415	-0.108948	0.000152588	
4.25446	-0.109863	-0.000152588	
4.25232	-0.109558	0.000152588	
4.24988	-0.108337	0	
4.24957	-0.109253	0.000915527	
4.24896	-0.108643	0.00106812	
4.24927	-0.109253	0.000457764	
4.24896	-0.109253	0.000305176	
4.24927	-0.109253	0.000762939	
4.24927	-0.108643	0.000762939	
4.24988	-0.107117	0.000762939	
4.24927	-0.105286	0	
4.24927	-0.104065	0	
4.24866	-0.104675	-0.000152588	
4.24927	-0.104065	0.000457764	
4.24927	-0.10437	0.000305176	
4.24744	-0.10376	0.000457764	
4.245	-0.104065	0.000305176	
4.24377	-0.10437	0.0012207	
4.24438	-0.104675	0.000457764	
4.24438	-0.104065	0.000762939	
4.24469	-0.104675	0.000915527	
4.24438	-0.104675	0.000610352	
4.24408	-0.10437	0.000305176	
4.24438	-0.10437	0	
4.24408	-0.10437	0	
4.24347	-0.101929	0.000305176	
4.24469	-0.0997925	0.000762939	
4.24469	-0.0997925	0.000152588	
4.24255	-0.0994873	0.000305176	
4.24042	-0.0997925	0.000457764	
4.23981	-0.0991821	0.000762939	
4.2392	-0.0994873	0.000915527	
4.23889	-0.0991821	0.000305176	
4.2392	-0.0991821	0.000457764	
4.2392	-0.0991821	0.000457764	
4.24011	-0.0973511	0.000457764	
4.23981	-0.0952148	0.000305176	
4.2392	-0.0946045	-0.000457764	
4.2395	-0.0949097	0	
4.2392	-0.0939941	0	
4.23767	-0.0946045	0.000305176	
4.23462	-0.0946045	0.000457764	
4.23462	-0.0952148	0.000457764	
4.23492	-0.0949097	0.000457764	
4.2337	-0.0921631	0.00106812	
4.23462	-0.0897217	0.000305176	
4.23401	-0.0894165	0.000762939	
4.23462	-0.0894165	0.000305176	
4.23462	-0.0894165	0.000610352	
4.23462	-0.0897217	0.000762939	
4.23431	-0.0906372	0.000152588	
4.23401	-0.0897217	0	
4.23187	-0.0872803	0.000762939	
4.23035	-0.0857544	0.000152588	
4.22943	-0.085144	0.000152588	
4.22974	-0.0845337	0.000762939	
4.22974	-0.0848389	0.000610352	
4.22974	-0.085144	0.0012207	
4.22943	-0.0848389	0.000457764	
4.22913	-0.0823975	0.000610352	
4.22974	-0.0805664	0.000762939	
4.22943	-0.0793457	0.000305176	
4.22913	-0.0793457	0.000457764	
4.22638	-0.0802612	-0.000152588	
4.22546	-0.0796509	-0.000457764	
4.22455	-0.0772095	0.000457764	
4.22424	-0.0759888	0.000305176	
4.22455	-0.0750732	0.000305176	
4.22485	-0.0750732	0.000305176	
4.22424	-0.0744629	0.000305176	
4.22455	-0.0732422	0.00106812	
4.22455	-0.0708008	0.000762939	
4.22424	-0.0698853	0.000457764	
4.22455	-0.0701904	0.000305176	
4.22272	-0.0698853	0.000305176	
4.22028	-0.0704956	0.000457764	
4.21997	-0.067749	0.000457764	
4.21997	-0.065918	-0.000305176	
4.21997	-0.0656128	0.000305176	
4.21936	-0.0653076	0.000152588	
4.21967	-0.0662231	0.000305176	
4.21997	-0.0628662	0.000305176	
4.21906	-0.0619507	0.000305176	
4.21906	-0.0604248	0.000915527	
4.21753	-0.0601196	0.000762939	
4.21539	-0.0579834	0.0012207	
4.21478	-0.0561523	0.000152588	
4.21448	-0.0552368	0.000610352	
4.21478	-0.0552368	0.000610352	
4.21539	-0.0546265	0.000457764	
4.21509	-0.0534058	0.000152588	
4.21448	-0.0509644	0.000152588	
4.21478	-0.0509644	0.000762939	
4.21478	-0.0506592	0.000152588	
4.21295	-0.0479126	0.000610352	
4.21051	-0.0454712	0.000610352	
4.21021	-0.0448608	0.000762939	
4.21021	-0.045166	0.0012207	
4.21021	-0.0430298	0.000305176	
4.20959	-0.0411987	0.000152588	
4.21021	-0.0396729	0.000762939	
4.21021	-0.0402832	0.000152588	
4.21051	-0.038147	0.000762939	
4.20776	-0.0363159	-0.000152588	
4.20593	-0.0357056	-0.000305176	
4.20532	-0.0357056	0.000457764	
4.20532	-0.0338745	0.000610352	
4.20502	-0.0311279	0	
4.20471	-0.0311279	0.000610352	
4.20502	-0.0308228	0.000152588	
4.20441	-0.0286865	0.000915527	
4.20471	-0.0265503	0.000762939	
4.20288	-0.0259399	0.000152588	
4.20166	-0.0253296	0.000610352	
4.19983	-0.0238037	0.000610352	
4.19983	-0.0216675	0.000305176	
4.19983	-0.020752	0.000305176	
4.19952	-0.0189209	-0.000457764	
4.20044	-0.0164795	0	
4.20013	-0.0158691	0	
4.20013	-0.0161743	0	
4.19769	-0.0137329	0.000457764	
4.19586	-0.0119019	0.000152588	
4.19525	-0.0109863	0.000915527	
4.19464	-0.0106812	0.00106812	
4.19495	-0.0088501	0.000457764	
4.19495	-0.00732422	0.000457764	
4.19525	-0.00610352	0.000915527	
4.19556	-0.00427246	0.00106812	
4.19525	-0.00213623	0.000457764	
4.19312	-0.00152588	0.000305176	
4.19067	0.000305176	0.000152588	
4.18945	0.00305176	0.000457764	
4.18945	0.00366211	0.000457764	
4.19037	0.00305176	0.000305176	
4.19006	0.00610352	0.000610352	
4.19037	0.00823975	0.000610352	
4.18945	0.00823975	0.0012207	
4.18823	0.010376	0.000762939	
4.18579	0.0128174	0.000152588	
4.18518	0.0131226	0.000762939	
4.18549	0.0149536	0.000152588	
4.18549	0.0170898	0.000762939	
4.18488	0.0180054	0	
4.18518	0.0183105	-0.000152588	
4.18518	0.0204468	0.000305176	
4.18365	0.0231934	0.000610352	
4.18091	0.022583	0	
4.18091	0.0253296	0.000152588	
4.1803	0.0271606	-0.000152588	
4.17999	0.0280762	0.000915527	
4.1806	0.0305176	0.00106812	
4.1803	0.0320435	0.000305176	
4.17999	0.0326538	0.000762939	
4.17847	0.0354004	0.000457764	
4.17664	0.0369263	0.000610352	
4.17572	0.0375366	0.000610352	
4.1748	0.0402832	-0.000152588	
4.17572	0.0421143	0.000305176	
4.17511	0.0430298	0.000305176	
4.17572	0.0421143	0.000457764	
4.17603	0.0448608	0.000457764	
4.17542	0.0466919	0.000610352	
4.17572	0.0476074	0.000915527	
4.17572	0.0497437	0.00137329	
4.17297	0.0515747	0.000915527	
4.17145	0.0531006	0.000457764	
4.17053	0.0552368	0.000762939	
4.17053	0.0570679	0.000457764	
4.17053	0.057373	0.00106812	
4.17023	0.0592041	0	
4.16992	0.0619507	-0.000152588	
4.16809	0.0622559	0.000457764	
4.16626	0.0643921	0.000152588	
4.16565	0.0665283	0.000305176	
4.16565	0.0674438	0.000762939	
4.16565	0.0692749	0.000610352	
4.16565	0.0717163	0.00106812	
4.16534	0.0723267	0.000610352	
4.16565	0.0726318	0.000457764	
4.16351	0.0744629	0.000762939	
4.16107	0.0759888	0.000305176	
4.16077	0.0772095	0.00106812	
4.16077	0.0796509	0	
4.16016	0.0808716	-0.000610352	
4.16046	0.0808716	0.000305176	
4.16016	0.083313	0.000610352	
4.15802	0.0854492	-0.000152588	
4.1568	0.0860596	0.000762939	
4.15558	0.0881958	0.000152588	
4.15619	0.0909424	0.000762939	
4.15558	0.0909424	0.000762939	
4.15527	0.0906372	0.000457764	
4.15558	0.0930786	0.000915527	
4.15314	0.09552	0.000762939	
4.15161	0.0964355	0.000305176	
4.15131	0.0976563	0.000305176	
4.1507	0.100403	-0.000152588	
4.1507	0.100708	0	
4.15039	0.102844	0.000610352	
4.14978	0.105591	0.000152588	
4.14856	0.105286	0.000457764	
4.14612	0.105896	0.000305176	
4.14581	0.108337	0.000915527	
4.14612	0.110779	0.000915527	
4.14581	0.110474	0.00106812	
4.14551	0.112915	0.000305176	
4.14612	0.114746	0.000915527	
4.14429	0.115662	0.000305176	
4.14154	0.115967	0.000610352	
4.14093	0.117493	0	
4.14032	0.119934	0.000152588	
4.14063	0.12085	0.000915527	
4.14063	0.122986	0.000457764	
4.14124	0.124817	0.000152588	
4.13849	0.126038	0.000305176	
4.13696	0.125122	0.000915527	
4.13605	0.127869	0.00106812	
4.13605	0.1297	0.000610352	
4.13635	0.130005	0.000915527	
4.13574	0.131531	0.000915527	
4.13574	0.132446	0.000762939	
4.1333	0.134888	0.000762939	
4.13208	0.134888	0.000457764	
4.13116	0.137939	-0.000305176	
4.13147	0.139771	0.000152588	
4.13086	0.139771	0.000457764	
4.13025	0.140076	0.000152588	
4.13116	0.142212	0.000152588	
4.12903	0.144348	0.000457764	
4.1272	0.145264	0.000610352	
4.12598	0.144653	0.000457764	
4.12598	0.146484	0.000457764	
4.12598	0.149536	0.000305176	
4.12628	0.150452	0.000152588	
4.12445	0.150146	0.000457764	
4.1214	0.152588	0.000305176	
4.12109	0.154419	-0.000610352	
4.12079	0.155029	0	
4.12109	0.155029	0.000305176	
4.12109	0.154724	0	
4.12109	0.157166	0.000762939	
4.11835	0.159302	0.000457764	
4.11652	0.159607	0.000915527	
4.11621	0.159912	0.00106812	
4.1156	0.161133	0.000457764	
4.11591	0.164185	0.000152588	
4.1156	0.164185	0.000457764	
4.11407	0.16449	0.000762939	
4.11194	0.166321	0.000610352	
4.11041	0.168152	0.000152588	
4.11133	0.169373	0.000152588	
4.11163	0.169678	0.000610352	
4.11072	0.169373	0.000305176	
4.11072	0.172424	0.000305176	
4.10919	0.17334	0.000457764	
4.10675	0.174561	0.000762939	
4.10645	0.175171	0.0012207	
4.10645	0.174255	0.000762939	
4.10583	0.176392	0.000457764	
4.10553	0.178528	0.000457764	
4.10645	0.178528	0.000152588	
4.10583	0.179138	0.000610352	
4.10614	0.179443	0	
4.10706	0.181274	-0.000305176	
4.10217	0.184021	0.000457764	
4.0979	0.184021	0.000762939	
4.09668	0.183716	0.000305176	
4.09607	0.184937	0.000152588	
4.09637	0.184326	0.000305176	
4.09637	0.186157	0.000762939	
4.09454	0.188599	0.000457764	
4.0921	0.189819	0.000762939	
4.0918	0.188904	0.000305176	
4.09119	0.188293	0.000457764	
4.09119	0.189514	0.000152588	
4.09119	0.191345	0	
4.09088	0.193481	-0.000152588	
4.09149	0.193481	0.000305176	
4.09119	0.194092	0.000152588	
4.0918	0.194397	0.000610352	
4.09088	0.194092	0	
4.0918	0.195923	0	
4.09119	0.198364	0.000762939	
4.09119	0.198364	0.0012207	
4.08722	0.198669	0.00106812	
4.08295	0.198669	0.000305176	
4.08081	0.198669	0.000457764	
4.08142	0.198669	0.000457764	
4.07928	0.198975	0.000610352	
4.07715	0.200806	0.000152588	
4.07654	0.203247	0.000152588	
4.07654	0.203552	0.000457764	
4.07654	0.204163	0.000152588	
4.07623	0.203857	0.000457764	
4.07623	0.203857	0.000610352	
4.07623	0.204163	0.000762939	
4.07562	0.204468	0.00106812	
4.07654	0.203552	0.000457764	
4.07654	0.206299	0.000915527	
4.07623	0.209045	0.000762939	
4.07623	0.208435	0.000305176	
4.07593	0.209045	0.000762939	
4.07654	0.208435	0.000152588	
4.07562	0.20874	-0.000152588	
4.07227	0.209045	0.000305176	
4.0683	0.209351	0.000457764	
4.06494	0.20874	0.000305176	
4.0625	0.209045	0.000305176	
4.0625	0.20874	0.000152588	
4.06189	0.211182	0.000762939	
4.06219	0.213318	0.000457764	
4.06158	0.213928	0.000457764	
4.06036	0.213928	0.000457764	
4.05762	0.213928	0.000457764	
4.05731	0.213013	0	
4.05701	0.213623	0.000152588	
4.0564	0.213623	-0.000152588	
4.05701	0.213928	0.000305176	
4.0564	0.213318	0.000762939	
4.05609	0.213928	0.000457764	
4.0567	0.213318	0.000457764	
4.05518	0.213623	0.000152588	
4.05243	0.213623	0.00106812	
4.05182	0.213623	0.00137329	
4.05212	0.213928	0.000610352	
4.05273	0.213318	0.000457764	
4.04999	0.213318	0.000610352	
4.04724	0.214539	0.000762939	
4.04694	0.214233	0.000152588	
4.04694	0.213318	0.000305176	
4.04663	0.216064	0.000305176	
4.04633	0.217896	0.000457764	
4.04419	0.218506	0.000457764	
4.04297	0.218506	0.000152588	
4.04266	0.218201	0.000610352	
4.04175	0.219727	0.000762939	
4.04205	0.218811	0.00137329	
4.04144	0.218506	0.000610352	
4.04083	0.218506	0.000457764	
4.03748	0.218506	0.000915527	
4.03687	0.218811	0.000457764	
4.03656	0.218506	0.000152588	
4.03778	0.218811	0.000152588	
4.03442	0.218811	-0.000457764	
4.0329	0.218201	0.000152588	
4.03198	0.218811	0.000457764	
4.03168	0.218811	0.000152588	
4.03259	0.218506	0.000305176	
4.03229	0.216675	0.000457764	
4.03076	0.213318	0.000762939	
4.0274	0.213318	0.000762939	
4.02771	0.213623	0.000610352	
4.0271	0.214233	0.000610352	
4.0271	0.213318	0.000305176	
4.02588	0.213623	0.000457764	
4.02222	0.213928	0	
4.02222	0.213928	-0.000457764	
4.02222	0.213928	0.000305176	
4.02252	0.213623	0.000152588	
4.02191	0.213928	0.000305176	
4.02222	0.213623	0.000305176	
4.02222	0.213623	0.000152588	
4.02252	0.213623	0.000457764	
4.02222	0.214233	0.0012207	
4.02252	0.213623	0.000915527	
4.02252	0.213318	0.000762939	
4.02161	0.214844	0.000610352	
4.02252	0.213318	0.000610352	
4.02252	0.213928	0.000915527	
4.02161	0.211182	0.000457764	
4.02222	0.209045	0	
4.02283	0.209045	0.000457764	
4.02222	0.208435	0	
4.02222	0.208435	0.000305176	
4.01459	0.209961	0.000457764	
4.00543	0.209351	0.000457764	
4.00269	0.209045	0.0012207	
4.00238	0.20874	0.000457764	
4.00116	0.20874	0.000457764	
3.99841	0.208435	0.000762939	
3.9978	0.209045	0.000610352	
3.99719	0.20752	0.000457764	
3.99719	0.204773	0	
3.99567	0.204163	-0.000152588	
3.99292	0.203552	0	
3.99323	0.203857	0.000762939	
3.99261	0.204163	0.000305176	
3.99231	0.203857	0.000457764	
3.99048	0.204163	0.000457764	
3.98834	0.204468	0.000305176	
3.98804	0.201721	0.000610352	
3.98712	0.199585	0.000457764	
3.98773	0.198059	0.000610352	
3.98621	0.198975	0.000610352	
3.98346	0.19928	0.000610352	
3.98254	0.198669	0.000305176	
3.98315	0.199585	-0.000610352	
3.98285	0.198975	0.000152588	
3.98071	0.198669	0.000152588	
3.97827	0.196838	0.000305176	
3.97797	0.194397	0.000152588	
3.97797	0.193787	0.000152588	
3.97766	0.194092	0.000762939	
3.97614	0.194397	0.0012207	
3.974	0.194397	0.000305176	
3.97278	0.193787	0.000305176	
3.97247	0.19165	0.000915527	
3.97339	0.190125	0.000305176	
3.97156	0.189209	0.000610352	
3.96942	0.188904	0	
3.9679	0.188904	0	
3.9682	0.189819	0.000457764	
3.9679	0.187378	0.000610352	
3.96667	0.184631	0	
3.96362	0.183716	0.000457764	
3.96301	0.184021	0.000762939	
3.96271	0.184021	0.0012207	
3.96301	0.184021	0.000457764	
3.96149	0.184326	0.000457764	
3.95874	0.182495	0.000610352	
3.95813	0.179749	0.000305176	
3.95782	0.179138	0.000915527	
3.95782	0.178833	0.000305176	
3.95599	0.178528	-0.000152588	
3.95416	0.177002	0.000457764	
3.95355	0.175781	0.000305176	
3.95355	0.174561	0.000305176	
3.95294	0.174561	0.000457764	
3.95111	0.174866	0	
3.94897	0.174255	0.000762939	
3.94867	0.172729	0.000762939	
3.94836	0.170288	0.000305176	
3.94623	0.169678	0.000152588	
3.94409	0.169067	0.000305176	
3.94348	0.169373	0.000457764	
3.94379	0.167236	0.000152588	
3.94257	0.165405	-0.000152588	
3.94318	0.1651	0	
3.94318	0.1651	0.000152588	
3.94318	0.164795	0.000305176	
3.94348	0.162659	0	
3.94318	0.159912	0.000305176	
3.9389	0.160217	0.000457764	
3.9328	0.159302	0.0012207	
3.93005	0.159302	0.000457764	
3.92822	0.157471	0.000457764	
3.92883	0.155945	0.000457764	
3.927	0.155029	0.000305176	
3.92426	0.154419	0.000915527	
3.92426	0.154419	0.000152588	
3.92365	0.153198	0	
3.92365	0.151062	0.000457764	
3.92303	0.150146	0.000305176	
3.92365	0.149841	0.000457764	
3.92303	0.150452	0.000457764	
3.92365	0.148315	0.000762939	
3.92365	0.145874	0.000915527	
3.92151	0.145264	0.000762939	
3.91937	0.145569	0.000457764	
3.91907	0.144958	0.000610352	
3.91815	0.143127	0.000457764	
3.91632	0.140991	0.000762939	
3.91479	0.140076	0.000152588	
3.91296	0.140686	-0.000152588	
3.91418	0.137634	0	
3.91144	0.135803	0.000762939	
3.90961	0.135193	-0.000152588	
3.90869	0.134888	0.000610352	
3.90869	0.135498	0	
3.90869	0.133362	0.000610352	
3.90656	0.130615	0.000457764	
3.90533	0.1297	0.000305176	
3.90411	0.130615	0.000457764	
3.90411	0.13031	0.000610352	
3.90198	0.128479	0.000610352	
3.89984	0.126343	0.000305176	
3.89893	0.125732	-0.000457764	
3.89923	0.125122	0.000457764	
3.8974	0.123901	0.000152588	
3.89465	0.12146	0.000305176	
3.89465	0.120544	0.000152588	
3.89374	0.120544	0.000152588	
3.89252	0.120544	0.000610352	
3.88947	0.118713	0.00137329	
3.88885	0.116272	0.000305176	
3.88855	0.115967	0.000457764	
3.88702	0.116577	0.000610352	
3.88458	0.113525	0.000457764	
3.88428	0.111084	0.000915527	
3.88367	0.111084	0.000457764	
3.88397	0.110779	0.000305176	
3.88214	0.108643	0.000457764	
3.88031	0.105591	0.000457764	
3.8797	0.105896	0.000305176	
3.87878	0.105896	0.000762939	
3.87695	0.105896	0.000610352	
3.87482	0.10376	0.00106812	
3.8739	0.102234	0.000610352	
3.87451	0.100403	0.000610352	
3.87421	0.101013	0.000762939	
3.87421	0.098877	0.000610352	
3.8739	0.0964355	0.000610352	
3.87421	0.0961304	0.000152588	
3.87421	0.0958252	-0.000152588	
3.87451	0.0958252	0.000152588	
3.8739	0.0942993	0.000610352	
3.87482	0.0915527	0.000305176	
3.8681	0.0909424	0.000610352	
3.8623	0.0912476	0.000305176	
3.85986	0.0897217	0.000762939	
3.85956	0.0863647	0.000762939	
3.85681	0.0863647	0.000305176	
3.85559	0.0854492	0.000610352	
3.85468	0.0863647	0.000152588	
3.85437	0.0842285	0.000457764	
3.85315	0.0823975	0.000152588	
3.8501	0.0814819	-0.000152588	
3.84979	0.0805664	0.000152588	
3.84949	0.0793457	0.000152588	
3.84857	0.0778198	0.000457764	
3.84521	0.0769043	0.000305176	
3.8446	0.0775146	0.000457764	
3.84521	0.0772095	0.00106812	
3.84216	0.0756836	0.00106812	
3.84064	0.072937	0.00106812	
3.84003	0.0720215	0.000152588	
3.83942	0.0723267	0.00106812	
3.83911	0.0698853	0.000762939	
3.83942	0.0671387	0.000762939	
3.84003	0.0671387	0.000457764	
3.83972	0.0668335	0	
3.83942	0.067749	0.000457764	
3.83423	0.0653076	0.000457764	
3.82477	0.0628662	0	
3.82111	0.062561	0.000457764	
3.81989	0.0628662	0.000610352	
3.82019	0.0628662	0.0012207	
3.81836	0.0601196	0.000762939	
3.81561	0.0576782	0.000762939	
3.8147	0.0576782	0.000457764	
3.815	0.057373	0.000152588	
3.81317	0.057373	0.000305176	
3.81073	0.0546265	0.000457764	
3.80981	0.0527954	-0.000152588	
3.81012	0.0537109	0.000152588	
3.81042	0.0527954	0.000610352	
3.81042	0.0527954	-0.000152588	
3.81042	0.0500488	0.000457764	
3.81073	0.0485229	0.000305176	
3.81042	0.0476074	0.000915527	
3.80768	0.0469971	0.000457764	
3.80554	0.0482178	0.000305176	
3.80493	0.045166	0.000610352	
3.80341	0.0436401	0.000152588	
3.80127	0.0430298	0.000610352	
3.80066	0.0424194	0.000152588	
3.80035	0.0424194	-0.000152588	
3.79974	0.0408936	0	
3.80005	0.0378418	0.000457764	
3.80005	0.0372314	0	
3.80035	0.0375366	0.000457764	
3.80066	0.0378418	0.000152588	
3.80035	0.0363159	0.000762939	
3.80035	0.0335693	0.000915527	
3.80035	0.032959	0.000915527	
3.79517	0.0326538	0.000152588	
3.78571	0.032959	0.000915527	
3.78174	0.032959	0.000305176	
3.78082	0.0308228	0.000610352	
3.78052	0.0283813	0.000152588	
3.7796	0.0280762	0.000305176	
3.77686	0.0283813	0.000305176	
3.77625	0.0280762	0.000610352	
3.77472	0.0259399	0.000305176	
3.77106	0.0238037	0.000762939	
3.77106	0.0231934	0.000457764	
3.77106	0.0231934	0.00137329	
3.76862	0.0234985	0.000305176	
3.76648	0.0231934	0.000152588	
3.76587	0.0213623	0.000762939	
3.76434	0.0183105	0.000457764	
3.7616	0.0183105	0.000610352	
3.76099	0.0183105	0.000305176	
3.76038	0.0183105	-0.000457764	
3.75885	0.0180054	0.000152588	
3.75671	0.0164795	0.000305176	
3.7558	0.0143433	0.000152588	
3.75427	0.0134277	0.000457764	
3.75214	0.0134277	0.000457764	
3.75122	0.0143433	0.000762939	
3.75122	0.0125122	0.000457764	
3.74878	0.0112915	0.000305176	
3.74664	0.00823975	0.000457764	
3.74725	0.00823975	0.000610352	
3.7442	0.00854492	0.000305176	
3.74237	0.00854492	0.000610352	
3.74146	0.00823975	-0.000457764	
3.74176	0.00640869	0.000305176	
3.73901	0.00396729	0	
3.73688	0.00335693	0.000305176	
3.73657	0.00305176	0.000152588	
3.73474	0.00305176	0.000152588	
3.73291	0.00335693	0.000762939	
3.73169	0.00274658	0.000915527	
3.73169	0.0012207	0.000610352	
3.72955	-0.000915527	0.000305176	
3.72711	-0.0012207	0.000915527	
3.72711	-0.0012207	0.000457764	
3.72437	-0.00152588	0.000305176	
3.72253	-0.0012207	-0.000152588	
3.72162	-0.000915527	0.000152588	
3.72131	-0.00305176	0.000610352	
3.71918	-0.00579834	0.000152588	
3.71735	-0.00671387	0	
3.71674	-0.00610352	0.000457764	
3.71704	-0.00549316	0.000152588	
3.71643	-0.00610352	0.0012207	
3.71613	-0.00549316	0.000762939	
3.71582	-0.00610352	0.000152588	
3.71643	-0.00823975	0.000762939	
3.71399	-0.010376	0.000915527	
3.71277	-0.0112915	0.000610352	
3.71185	-0.0109863	0.000152588	
3.70972	-0.0119019	-0.000457764	
3.70697	-0.0109863	0	
3.70667	-0.0106812	0.000457764	
3.70697	-0.0106812	0	
3.70514	-0.0131226	0.000457764	
3.703	-0.015564	0.000152588	
3.70178	-0.0158691	0.000762939	
3.69934	-0.0149536	0.000457764	
3.69781	-0.015564	0.000610352	
3.6972	-0.0161743	0.000305176	
3.69476	-0.0161743	0.000305176	
3.69263	-0.0158691	0	
3.69141	-0.0161743	0.000457764	
3.69141	-0.0183105	-0.000152588	
3.68988	-0.0201416	-0.000152588	
3.68774	-0.0210571	0.000152588	
3.68713	-0.0210571	0	
3.685	-0.0213623	0.000152588	
3.68256	-0.0213623	0.000457764	
3.68164	-0.0210571	0.000762939	
3.6795	-0.0204468	0.0012207	
3.67737	-0.020752	0.000915527	
3.67706	-0.0210571	0	
3.67493	-0.0222778	0.000762939	
3.6731	-0.0244141	0.000610352	
3.67249	-0.0253296	0.000305176	
3.67218	-0.0256348	0.000305176	
3.67035	-0.0256348	0.000457764	
3.6676	-0.0256348	0.000915527	
3.6673	-0.0259399	0.000305176	
3.66547	-0.0259399	0.000457764	
3.66364	-0.0253296	0.000762939	
3.66241	-0.0256348	0.000762939	
3.66089	-0.027771	0.0012207	
3.65814	-0.0305176	0.000457764	
3.65753	-0.0305176	0.000610352	
3.65479	-0.0299072	0.000152588	
3.65326	-0.0308228	0.000457764	
3.65295	-0.0314331	0.000610352	
3.65021	-0.0308228	0	
3.64807	-0.0308228	-0.000305176	
3.64777	-0.0311279	0.000152588	
3.64838	-0.0305176	0.000610352	
3.64563	-0.0308228	0.000457764	
3.64349	-0.0305176	0.000152588	
3.64258	-0.0305176	0.000457764	
3.64075	-0.0323486	0.000762939	
3.638	-0.0357056	0.000457764	
3.63739	-0.0357056	0.000762939	
3.638	-0.0360107	0	
3.6377	-0.0354004	0.000610352	
3.63708	-0.0354004	0.000305176	
3.63098	-0.0354004	0.000305176	
3.62335	-0.0354004	-0.000152588	
3.61877	-0.0344849	0.000305176	
3.61847	-0.0354004	0.000152588	
3.61572	-0.0354004	0.000305176	
3.61359	-0.0357056	0.000152588	
3.61328	-0.0354004	0.000305176	
3.61053	-0.0354004	0.00106812	
3.6084	-0.0360107	0.00106812	
3.60809	-0.0369263	0.000915527	
3.6084	-0.039978	0.000305176	
3.6087	-0.0408936	0.000762939	
3.6084	-0.0405884	0.000762939	
3.6084	-0.0405884	0.000915527	
3.60596	-0.0405884	0.000457764	
3.60321	-0.039978	0.000457764	
3.6026	-0.0408936	0.000610352	
3.60291	-0.0408936	0.000762939	
3.60107	-0.0405884	0.000457764	
3.59924	-0.0408936	0.000457764	
3.59802	-0.039978	0.000762939	
3.59589	-0.0405884	0.00106812	
3.59406	-0.0405884	0.000610352	
3.59344	-0.0402832	0.000457764	
3.59222	-0.0405884	0.000305176	
3.59375	-0.0405884	0.000915527	
3.59314	-0.0405884	0.000457764	
3.59314	-0.0405884	0.000152588	
3.59344	-0.0418091	-0.000457764	
3.59222	-0.045166	0.000152588	
3.59283	-0.0454712	0.000305176	
3.59375	-0.0457764	0.000152588	
3.59283	-0.0454712	0.000152588	
3.59283	-0.045166	0.000152588	
3.59283	-0.045166	0.000457764	
3.59375	-0.0457764	0.000305176	
3.59283	-0.0457764	0.000610352	
3.57941	-0.045166	0.000305176	
3.56201	-0.0454712	0.000457764	
3.5553	-0.0463867	0.000305176	
3.55133	-0.0448608	0.000305176	
3.5495	-0.0457764	-0.000305176	
3.54858	-0.0457764	0	
3.54706	-0.0457764	0.000457764	
3.54523	-0.0457764	0.000152588	
3.54401	-0.0454712	0.000457764	
3.54156	-0.0454712	0.000457764	
3.54004	-0.045166	0.000762939	
3.53943	-0.0454712	0.00152588	
3.53729	-0.0454712	0.000915527	
3.53546	-0.045166	0.000762939	
3.53455	-0.0460815	0.000457764	
3.5321	-0.0457764	0.000762939	
3.52936	-0.0457764	0.000762939	
3.52844	-0.0445557	0.000152588	
3.52722	-0.0454712	0.000457764	
3.52417	-0.0463867	0	
3.52478	-0.0476074	0.000305176	
3.52386	-0.0506592	0.000305176	
3.52386	-0.0500488	0.000610352	
3.52417	-0.050354	0.000610352	
3.52417	-0.050354	0.000915527	
3.52417	-0.0506592	0.000305176	
3.52234	-0.050354	0.000610352	
3.51959	-0.0500488	0.000457764	
3.51898	-0.0500488	0.000457764	
3.51715	-0.0497437	0.000915527	
3.51501	-0.0506592	0.000457764	
3.51379	-0.050354	-0.000457764	
3.51227	-0.050354	0	
3.51013	-0.0506592	0.000305176	
3.50952	-0.0497437	0.000305176	
3.50922	-0.050354	0.000457764	
3.50891	-0.0509644	0	
3.50922	-0.0500488	0.000762939	
3.50952	-0.0509644	0.000762939	
3.50952	-0.050354	0.000610352	
3.50861	-0.0497437	0.000152588	
3.50922	-0.0506592	0.000457764	
3.50128	-0.0509644	0.000305176	
3.48999	-0.0506592	0.000305176	
3.4845	-0.0506592	-0.000305176	
3.48419	-0.050354	0	
3.48267	-0.0506592	0	
3.47992	-0.0506592	0	
3.47961	-0.0509644	0	
3.47778	-0.0506592	0.000152588	
3.47565	-0.0506592	0.000610352	
3.4729	-0.050354	0.0012207	
3.47076	-0.050354	0.000762939	
3.46985	-0.050354	0.000457764	
3.46954	-0.0506592	0.000610352	
3.46985	-0.0506592	0.000610352	
3.46954	-0.0506592	0.000610352	
3.46893	-0.050354	0.000152588	
3.46924	-0.050354	0.000457764	
3.46954	-0.0506592	0.000457764	
3.46985	-0.0509644	0.000305176	
3.46924	-0.0509644	0.000152588	
3.46954	-0.050354	0.000457764	
3.46985	-0.050354	0.000610352	
3.47015	-0.0506592	0.00137329	
3.46985	-0.0500488	0.000915527	
3.46985	-0.0506592	0	
3.46954	-0.0524902	0.000610352	
3.46436	-0.0540161	0.000762939	
3.4549	-0.0546265	0.000762939	
3.45123	-0.0552368	0.000305176	
3.44818	-0.0549316	-0.000305176	
3.44543	-0.0552368	0	
3.44543	-0.055542	0	
3.44269	-0.0552368	0.000610352	
3.44055	-0.0558472	0.000152588	
3.43964	-0.0552368	0.000457764	
3.4375	-0.0546265	0.000915527	
3.43689	-0.0552368	0.000610352	
3.43567	-0.0552368	0.000457764	
3.43323	-0.055542	0	
3.4314	-0.055542	0.000305176	
3.43048	-0.0552368	0.000305176	
3.42804	-0.055542	0.000610352	
3.42621	-0.055542	-0.000457764	
3.42377	-0.0558472	0.000152588	
3.42102	-0.055542	0.000152588	
3.42041	-0.0558472	0	
3.41827	-0.0552368	0.000457764	
3.41583	-0.055542	0.000457764	
3.41583	-0.0552368	0.000762939	
3.414	-0.0552368	0.0012207	
3.41156	-0.0549316	0.000915527	
3.41064	-0.0561523	0.000915527	
3.40881	-0.0552368	0.000610352	
3.40668	-0.0558472	0.000305176	
3.40363	-0.0552368	0.000305176	
3.40118	-0.0552368	0.000152588	
3.40057	-0.0558472	0.000305176	
3.39874	-0.0552368	0.000610352	
3.39661	-0.0549316	0.000457764	
3.39661	-0.055542	0	
3.39386	-0.0552368	0.000457764	
3.39142	-0.0552368	0.000457764	
3.39111	-0.0549316	0.0012207	
3.38867	-0.055542	0.000610352	
3.38623	-0.0549316	0.000305176	
3.38409	-0.055542	0.000915527	
3.38135	-0.0552368	0.000457764	
3.38043	-0.0558472	0.000610352	
3.3728	-0.0552368	0.000152588	
3.36456	-0.055542	-0.000457764	
3.36151	-0.055542	0	
3.35938	-0.055542	0.000457764	
3.35693	-0.0558472	0.000152588	
3.35663	-0.0552368	0.000610352	
3.35449	-0.0558472	0.000305176	
3.35266	-0.0549316	0.000915527	
3.34991	-0.0552368	0.000915527	
3.34686	-0.0549316	0.000762939	
3.34625	-0.055542	0.000762939	
3.34412	-0.055542	0.000457764	
3.34198	-0.0552368	0.000457764	
3.34137	-0.0549316	0.000457764	
3.33954	-0.055542	0	
3.3371	-0.055542	0	
3.33527	-0.0552368	-0.000152588	
3.33221	-0.0552368	0.000305176	
3.3316	-0.0558472	0.000457764	
3.32947	-0.055542	0	
3.32733	-0.0552368	0.000457764	
3.32703	-0.055542	0.0012207	
3.32611	-0.055542	0.000762939	
3.32642	-0.0558472	0.000305176	
3.32703	-0.055542	0.000762939	
3.32458	-0.055542	0.000457764	
3.32306	-0.057373	0.000457764	
3.32031	-0.0604248	0.000152588	
3.31757	-0.0598145	0.000305176	
3.31635	-0.0601196	0.000610352	
3.31482	-0.06073	0.000610352	
3.31299	-0.06073	0.000457764	
3.31177	-0.06073	0.000305176	
3.31146	-0.0604248	0.000915527	
3.31207	-0.0601196	0.00167847	
3.30963	-0.0601196	0.000915527	
3.30841	-0.06073	0.000610352	
3.30505	-0.0601196	0.000457764	
3.30261	-0.0601196	0.000305176	
3.30231	-0.0604248	0.000915527	
3.29987	-0.0598145	0.000305176	
3.29712	-0.0598145	-0.000305176	
3.29712	-0.0601196	0.000305176	
3.29498	-0.0604248	0.000305176	
3.29285	-0.0598145	0	
3.29224	-0.0601196	0.000457764	
3.29254	-0.0604248	0.000457764	
3.29224	-0.0595093	0.000762939	
3.29193	-0.0601196	0.000762939	
3.29163	-0.0598145	0.000305176	
3.29224	-0.06073	0.000610352	
3.29132	-0.0598145	0.000457764	
3.29224	-0.0601196	0.000610352	
3.29224	-0.0610352	0	
3.29193	-0.06073	-0.000610352	
3.2843	-0.0601196	0.000152588	
3.27362	-0.0604248	0.000152588	
3.26874	-0.0610352	0.000152588	
3.26813	-0.06073	0.000305176	
3.26538	-0.0604248	0.000152588	
3.26324	-0.0604248	0.000762939	
3.2608	-0.0601196	0.000915527	
3.25897	-0.06073	0.0012207	
3.25806	-0.06073	0.000457764	
3.25592	-0.0604248	0.000762939	
3.25348	-0.0598145	0.000152588	
3.25287	-0.0604248	0.000762939	
3.25043	-0.0604248	-0.000152588	
3.2486	-0.0610352	0.000457764	
3.24585	-0.0598145	0.000305176	
3.24371	-0.0601196	0.000610352	
3.2431	-0.06073	0.000457764	
3.24097	-0.0604248	0.000305176	
3.23822	-0.0601196	0.00106812	
3.23639	-0.0598145	0.00106812	
3.23364	-0.0601196	0.00106812	
3.23273	-0.0601196	0.000762939	
3.2309	-0.0604248	0.000915527	
3.22876	-0.06073	0.000915527	
3.22845	-0.0592041	0.000610352	
3.22601	-0.06073	0.000305176	
3.22388	-0.0598145	-0.000305176	
3.22144	-0.0604248	-0.000152588	
3.21869	-0.0598145	0.000610352	
3.21869	-0.0616455	0.000152588	
3.21808	-0.0646973	0.000610352	
3.21838	-0.0650024	0.000152588	
3.21777	-0.0653076	0.000305176	
3.21808	-0.0650024	0.000457764	
3.21838	-0.0646973	0.000762939	
3.21838	-0.0662231	0.000305176	
3.21808	-0.0646973	0.000762939	
3.21838	-0.0650024	0.000305176	
3.21808	-0.0653076	0.000152588	
3.21747	-0.0650024	-0.000152588	
3.21838	-0.0650024	0.000152588	
3.21777	-0.0653076	0.000152588	
3.20892	-0.0656128	0.000305176	
3.19733	-0.0650024	0	
3.19366	-0.0653076	0.000305176	
3.19153	-0.0650024	0.000457764	
3.18939	-0.0646973	0.0012207	
3.18878	-0.0656128	0.000915527	
3.18634	-0.0656128	0.000305176	
3.1842	-0.0646973	0.000762939	
3.18176	-0.0656128	0.000305176	
3.17963	-0.0653076	0.000152588	
3.17932	-0.0653076	0.000305176	
3.17657	-0.065918	0.000305176	
3.17444	-0.0650024	0.000610352	
3.172	-0.0646973	0.000457764	
3.16925	-0.0653076	0.000457764	
3.16895	-0.0653076	0.000305176	
3.16711	-0.0650024	0.000762939	
3.16376	-0.0656128	0.0012207	
3.16406	-0.0650024	0.000915527	
3.16193	-0.0653076	0.000305176	
3.15979	-0.0646973	0.000457764	
3.15765	-0.0653076	0.000457764	
3.15521	-0.0668335	0.000762939	
3.1543	-0.0698853	0.000152588	
3.15155	-0.0701904	-0.000152588	
3.14972	-0.0704956	0.000152588	
3.14697	-0.0704956	0.000457764	
3.14423	-0.0704956	-0.000152588	
3.14392	-0.0701904	0.000762939	
3.14178	-0.0701904	0.000305176	
3.13995	-0.0701904	0.000915527	
3.13812	-0.0701904	0.000305176	
3.13507	-0.0698853	0.000305176	
3.13446	-0.0704956	0.000305176	
3.13232	-0.0698853	0.000762939	
3.13049	-0.0701904	0.000610352	
3.12927	-0.0695801	0.000610352	
3.12744	-0.0704956	-0.000152588	
3.125	-0.0701904	0	
3.12286	-0.0704956	0.000152588	
3.12042	-0.0701904	0.000457764	
3.11951	-0.0701904	0	
3.1192	-0.0704956	0.000305176	
3.1192	-0.0695801	0.000610352	
3.11951	-0.0704956	0.00106812	
3.1192	-0.0698853	0.0012207	
3.11951	-0.0701904	0.000457764	
3.11951	-0.0698853	0.000915527	
3.11951	-0.0698853	0.000457764	
3.1192	-0.0701904	0.000305176	
3.12012	-0.0698853	0	
3.1192	-0.0717163	0	
3.1192	-0.0753784	0.000610352	
3.11951	-0.0753784	0.000610352	
3.1192	-0.0750732	0.000152588	
3.1189	-0.0747681	0.000305176	
3.12012	-0.0747681	0.000457764	
3.1192	-0.0750732	0.0012207	
3.10394	-0.0747681	0.000762939	
3.08655	-0.0744629	0.000457764	
3.07922	-0.0744629	0.000762939	
3.07556	-0.0753784	0.000457764	
3.07526	-0.0747681	0.000610352	
3.07312	-0.0747681	0.000305176	
3.07129	-0.0753784	-0.000305176	
3.06824	-0.0747681	0.000152588	
3.06549	-0.0747681	0.000457764	
3.06519	-0.0750732	0.000305176	
3.06274	-0.0750732	0.000457764	
3.06152	-0.0750732	0.000305176	
3.05817	-0.0750732	0.000915527	
3.05573	-0.0744629	0.000610352	
3.05542	-0.0753784	0.000915527	
3.05359	-0.0750732	0.000305176	
3.05084	-0.0750732	0.000915527	
3.04901	-0.0753784	0.000457764	
3.04626	-0.0747681	0.000152588	
3.04535	-0.0765991	-0.000305176	
3.04321	-0.0787354	0.000152588	
3.0423	-0.0787354	0.000152588	
3.03955	-0.0799561	0	
3.0365	-0.0802612	0.000610352	
3.03558	-0.0796509	0.000457764	
3.03406	-0.0799561	0.000915527	
3.03131	-0.0799561	0.00106812	
3.02887	-0.0799561	0.000915527	
3.02612	-0.0793457	0	
3.02551	-0.0796509	0.000610352	
3.02368	-0.0796509	0.000305176	
3.02155	-0.0799561	0.000457764	
3.01941	-0.0802612	0	
3.01666	-0.0796509	0.000457764	
3.01636	-0.0799561	0.000457764	
3.01361	-0.0799561	0.000762939	
3.01178	-0.0793457	0.000457764	
3.00964	-0.0796509	0.000915527	
3.0069	-0.0796509	0.000457764	
3.00598	-0.0796509	0.0012207	
3.00354	-0.0802612	0.000915527	
3.00171	-0.0796509	0.000610352	
2.99896	-0.0796509	0.000457764	
2.99683	-0.0793457	0.000457764	
2.99408	-0.0808716	0.0012207	
2.99225	-0.0848389	0.000305176	
2.99133	-0.0839233	-0.000152588	
2.98981	-0.0857544	-0.000152588	
2.98706	-0.0839233	0.000457764	
2.98431	-0.0845337	0.000305176	
2.98187	-0.0845337	0.000152588	
2.98096	-0.0848389	0.000152588	
2.98096	-0.0848389	0.000457764	
2.98096	-0.0848389	0.000457764	
2.98126	-0.0842285	0.000457764	
2.98157	-0.0848389	0.000152588	
2.98065	-0.085144	0.000610352	
2.98126	-0.0845337	0.000457764	
2.98096	-0.0854492	0	
2.98096	-0.085144	-0.000610352	
2.98096	-0.0845337	0.000305176	
2.97363	-0.0848389	-0.000152588	
2.96417	-0.085144	0.000610352	
2.9599	-0.0854492	0.000152588	
2.95776	-0.0845337	0	
2.95471	-0.0845337	0.000457764	
2.95227	-0.0842285	0.00137329	
2.95197	-0.0845337	0.000762939	
2.95044	-0.0860596	0.000152588	
2.94769	-0.088501	0.000457764	
2.94434	-0.0891113	0.000457764	
2.9425	-0.0897217	0.000457764	
2.94159	-0.0897217	0.000305176	
2.94159	-0.0891113	0.000457764	
2.94189	-0.0894165	0.000457764	
2.94189	-0.0900269	0.000610352	
2.94189	-0.0897217	0.000457764	
2.94189	-0.0891113	0.000152588	
2.94189	-0.0897217	0.000762939	
2.94159	-0.0894165	0.0012207	
2.94159	-0.0891113	0.000762939	
2.9422	-0.0897217	0.000457764	
2.94159	-0.0894165	0.000762939	
2.94189	-0.0894165	0.000457764	
2.94281	-0.0894165	0.000457764	
2.94159	-0.0897217	0.000610352	
2.94159	-0.090332	-0.000152588	
2.94159	-0.0897217	-0.000152588	
2.94189	-0.0894165	0.000305176	
2.94159	-0.0897217	0.000457764	
2.94159	-0.0897217	0.000610352	
2.94098	-0.0915527	0.000152588	
2.94159	-0.093689	0.000762939	
2.94189	-0.0946045	0.000610352	
2.94189	-0.0946045	0.000457764	
2.94189	-0.0949097	0.000305176	
2.94159	-0.0942993	0.000762939	
2.94189	-0.0946045	0.000457764	
2.94159	-0.0949097	0.000305176	
2.94189	-0.0942993	-0.000305176	
2.94128	-0.0949097	0	
2.94159	-0.0942993	0	
2.9422	-0.0949097	0	
2.9422	-0.0946045	0	
2.94159	-0.0946045	0	
2.94159	-0.0949097	0.000762939	
2.9422	-0.0949097	0.00137329	
2.9422	-0.0946045	0.0012207	
2.91107	-0.0946045	0.000610352	
2.87292	-0.0946045	0.00106812	
2.8598	-0.0942993	0.000457764	
2.85522	-0.0946045	0.000762939	
2.85309	-0.0949097	0.000152588	
2.85248	-0.0946045	0.000305176	
2.85095	-0.0961304	0	
2.84851	-0.0991821	0.000457764	
2.84607	-0.098877	0.000152588	
2.84363	-0.0994873	0.000305176	
2.84027	-0.098877	0.000915527	
2.83844	-0.0994873	0.00137329	
2.83875	-0.098877	0.000915527	
2.836	-0.0991821	0.000762939	
2.83356	-0.0991821	0.000762939	
2.83142	-0.0991821	0.0012207	
2.82928	-0.0997925	0.000610352	
2.82837	-0.0994873	0.000457764	
2.82593	-0.0991821	-0.000305176	
2.82379	-0.0991821	0	
2.82349	-0.0997925	0.000610352	
2.82349	-0.0991821	0.000305176	
2.82379	-0.0997925	0.000305176	
2.82349	-0.0994873	0.000457764	
2.82318	-0.0994873	0.000915527	
2.82349	-0.0991821	0.000610352	
2.82288	-0.0994873	0.000762939	
2.82288	-0.0994873	0.000305176	
2.82288	-0.0997925	0.000610352	
2.82318	-0.098877	0.000457764	
2.82227	-0.0994873	-0.000152588	
2.82257	-0.101624	-0.000457764	
2.82379	-0.104065	0.000152588	
2.82257	-0.104675	0.000457764	
2.82318	-0.104675	0.000152588	
2.82349	-0.10437	0.000457764	
2.82288	-0.104675	0.000152588	
2.82349	-0.10437	0.000610352	
2.82349	-0.104065	0.00183105	
2.82349	-0.104065	0.0012207	
2.82349	-0.10437	0.000610352	
2.82257	-0.104065	0.000610352	
2.8067	-0.104065	0.000305176	
2.78625	-0.104065	0.000610352	
2.7771	-0.10437	0.000305176	
2.77435	-0.104065	0.000305176	
2.77435	-0.10437	0.000305176	
2.77191	-0.10376	0.000610352	
2.77008	-0.104065	0.000610352	
2.76703	-0.104675	0.000305176	
2.76459	-0.10437	0.000457764	
2.76428	-0.104065	0.00106812	
2.76337	-0.10437	0.000610352	
2.76184	-0.103455	0.00106812	
2.76062	-0.10437	0.000915527	
2.75726	-0.104675	0.000457764	
2.75543	-0.104065	0.000915527	
2.75482	-0.104675	0.000457764	
2.75269	-0.104065	0	
2.75024	-0.104065	0	
2.7478	-0.106506	0.000457764	
2.74536	-0.108643	0.000457764	
2.742	-0.109558	0.000457764	
2.74017	-0.109558	0.000610352	
2.73865	-0.109558	0.000610352	
2.73773	-0.109253	0.000915527	
2.7359	-0.109253	0.000762939	
2.73254	-0.109558	0.000152588	
2.7301	-0.109558	0.000610352	
2.7298	-0.109253	0.000762939	
2.72827	-0.109863	0.000457764	
2.72491	-0.109253	0	
2.72278	-0.109253	0	
2.72034	-0.108643	0.000457764	
2.71973	-0.109558	0	
2.7179	-0.109253	0.000305176	
2.71576	-0.108948	0.000152588	
2.71301	-0.109253	0.000915527	
2.71027	-0.109253	0.00106812	
2.70813	-0.108643	0.00106812	
2.70569	-0.109558	0.000305176	
2.70538	-0.108948	0.000457764	
2.70233	-0.109863	0.000152588	
2.7005	-0.109558	0.000762939	
2.69836	-0.109558	0.000915527	
2.69562	-0.109253	0.000152588	
2.6944	-0.109558	0.000457764	
2.69287	-0.108948	0.000305176	
2.69135	-0.109558	0.000152588	
2.68799	-0.109253	0.000305176	
2.68616	-0.109558	0.000762939	
2.68463	-0.108643	0.00106812	
2.68311	-0.109253	0.000915527	
2.68036	-0.108948	0.0012207	
2.68097	-0.108948	0.000762939	
2.68005	-0.108948	0.000457764	
2.68005	-0.108643	0.000915527	
2.68036	-0.108948	0.000305176	
2.68005	-0.108948	-0.000305176	
2.68005	-0.109253	-0.000152588	
2.68005	-0.111694	0.000305176	
2.68005	-0.114136	0.000457764	
2.67975	-0.114441	0.000305176	
2.68066	-0.114136	0.000610352	
2.68036	-0.114746	0.000915527	
2.68005	-0.114441	0.000915527	
2.68005	-0.113525	0.000762939	
2.68005	-0.114441	0.000457764	
2.68005	-0.113525	0.000457764	
2.67975	-0.114441	0.000305176	
2.68066	-0.114136	0.000152588	
2.67944	-0.114136	-0.000762939	
2.67944	-0.113525	0	
2.68036	-0.113525	0.000152588	
2.68005	-0.114136	0	
2.67975	-0.114136	0.000305176	
2.68005	-0.114136	0.000457764	
2.68005	-0.113525	0.000457764	
2.68097	-0.113831	0.00106812	
2.68036	-0.113831	0.0012207	
2.68036	-0.113525	0.000762939	
2.67975	-0.114441	0.000915527	
2.67975	-0.113831	0.000762939	
2.65533	-0.114441	0.000762939	
2.62634	-0.114746	0.000152588	
2.61475	-0.114441	0.000305176	
2.61139	-0.113525	0.000305176	
2.61108	-0.114136	0.000305176	
2.60986	-0.114136	0.000305176	
2.60742	-0.114136	0.000457764	
2.60406	-0.11322	0.000762939	
2.60193	-0.113525	0.00106812	
2.59857	-0.113831	0.00106812	
2.59674	-0.114136	0.00106812	
2.59705	-0.114746	0.000610352	
2.59674	-0.114441	0.000915527	
2.59583	-0.114441	0.00106812	
2.59613	-0.114136	0.000305176	
2.59583	-0.114136	-0.000152588	
2.59674	-0.113831	-0.000457764	
2.59674	-0.113525	0.000610352	
2.59674	-0.113831	0.000305176	
2.59613	-0.114746	0.000762939	
2.59552	-0.114441	0.000457764	
2.59613	-0.114136	0.000762939	
2.59644	-0.114441	0.000762939	
2.59644	-0.114136	0.000305176	
2.59644	-0.114746	0.000457764	
2.59674	-0.114441	0	
2.59674	-0.113831	0.000305176	
2.59674	-0.114136	0	
2.59583	-0.114441	-0.000457764	
2.59613	-0.114136	0.000152588	
2.59613	-0.114441	0.000457764	
2.59644	-0.113525	0.000152588	
2.59583	-0.114441	0.000457764	
2.59583	-0.114136	0.000152588	
2.59644	-0.113525	0.000457764	
2.59613	-0.114746	0.00213623	
2.59613	-0.114136	0.0012207	
2.59705	-0.113831	0.000305176	
2.59583	-0.113831	0.000915527	
2.59644	-0.113831	0.000305176	
2.59613	-0.114136	0.000610352	
2.59583	-0.114136	0	
2.59644	-0.113831	0.000762939	
2.59705	-0.114441	0.000305176	
2.59613	-0.113831	0.000457764	
2.59583	-0.114441	0.000457764	
2.59613	-0.113831	0.000305176	
2.59613	-0.113525	0.000915527	
2.59552	-0.113831	0.0012207	
2.56378	-0.114441	0.000762939	
2.52594	-0.114136	0.000762939	
2.51404	-0.113831	0.000457764	
2.51038	-0.114136	0.000457764	
2.50854	-0.114136	0.00106812	
2.5061	-0.113831	0.000305176	
2.50305	-0.114441	-0.000457764	
2.50092	-0.114441	-0.000152588	
2.49939	-0.114441	0.000305176	
2.49817	-0.114441	0	
2.49847	-0.115051	0.000305176	
2.49847	-0.114136	0.000610352	
2.49786	-0.113831	0.000457764	
2.49847	-0.114136	0.000610352	
2.49817	-0.113525	0.000457764	
2.48871	-0.114441	0.000457764	
2.47742	-0.113831	0.000152588	
2.47192	-0.114746	0.000457764	
2.46918	-0.114136	0.000305176	
2.46643	-0.113831	-0.000457764	
2.46429	-0.114441	0.000305176	
2.46429	-0.112	0.000305176	
2.46094	-0.110168	0	
2.45911	-0.108948	0.000305176	
2.45667	-0.109253	-0.000152588	
2.45422	-0.109253	0.000305176	
2.45361	-0.109253	0.0012207	
2.453	-0.109558	0.00137329	
2.45361	-0.108948	0.000457764	
2.45392	-0.108948	0.000610352	
2.45361	-0.109253	0.000457764	
2.45178	-0.108643	0.000915527	
2.44965	-0.109253	0.000152588	
2.44812	-0.109558	0.000305176	
2.4472	-0.109558	0.000152588	
2.44476	-0.109558	0.000457764	
2.44171	-0.109253	0.000305176	
2.43988	-0.110168	0.000457764	
2.43896	-0.109253	0.000610352	
2.43744	-0.108948	0.00137329	
2.43469	-0.108948	0.00106812	
2.43225	-0.108643	0.000915527	
2.42981	-0.106812	0.000610352	
2.42889	-0.104675	0.000610352	
2.42676	-0.104065	0.000762939	
2.42493	-0.10437	0.000152588	
2.42218	-0.104065	-0.000305176	
2.41974	-0.104065	-0.000152588	
2.41791	-0.104675	0.000305176	
2.41486	-0.104065	0.000305176	
2.41455	-0.104675	0.000610352	
2.41425	-0.10437	0.000152588	
2.41241	-0.10498	0.000762939	
2.41028	-0.10437	0.000762939	
2.40753	-0.10437	0.000610352	
2.4054	-0.102844	0.000457764	
2.40417	-0.0997925	0.000610352	
2.40234	-0.0991821	0.000610352	
2.3999	-0.0994873	-0.000152588	
2.39777	-0.0991821	-0.000457764	
2.39532	-0.098877	0	
2.3941	-0.0991821	0.000305176	
2.39441	-0.100098	0	
2.3938	-0.0991821	0.000152588	
2.39471	-0.0991821	0.000152588	
2.39471	-0.0970459	0.000457764	
2.3938	-0.0952148	0.000762939	
2.3941	-0.0946045	0.00152588	
2.3938	-0.0939941	0.000457764	
2.3941	-0.0942993	0.000457764	
2.39471	-0.0949097	0.000610352	
2.39471	-0.0939941	0.000915527	
2.39502	-0.0949097	0.000305176	
2.39441	-0.0924683	0.000610352	
2.39471	-0.0897217	0.000457764	
2.39471	-0.0894165	0.000457764	
2.3941	-0.0894165	0.000305176	
2.37701	-0.0891113	0.000305176	
2.35687	-0.0894165	0.000915527	
2.35046	-0.0897217	0.00137329	
2.34863	-0.0881958	0.000610352	
2.34558	-0.0848389	0.00106812	
2.34375	-0.0845337	0.000762939	
2.34161	-0.0842285	0.000610352	
2.34009	-0.0848389	0.000915527	
2.33826	-0.0845337	0.000305176	
2.33551	-0.0827026	0	
2.33551	-0.0799561	-0.000457764	
2.33307	-0.0802612	0.000457764	
2.33185	-0.0799561	0.000305176	
2.3288	-0.0799561	0.000457764	
2.32605	-0.0802612	0.000305176	
2.32574	-0.0775146	0.000305176	
2.32361	-0.0756836	0.000457764	
2.32147	-0.0750732	0.000762939	
2.31873	-0.0753784	0.000610352	
2.31659	-0.0753784	0.000305176	
2.31567	-0.0747681	0.000152588	
2.31567	-0.0723267	0.000305176	
2.31506	-0.0704956	-0.000305176	
2.31567	-0.0698853	0.000305176	
2.31506	-0.0695801	0.000305176	
2.31537	-0.0701904	0.000152588	
2.31537	-0.0680542	0.000305176	
2.31476	-0.0656128	-0.000305176	
2.3056	-0.0656128	0.000610352	
2.29492	-0.0650024	0.00106812	
2.29126	-0.0628662	0.00152588	
2.28851	-0.0613403	0.000457764	
2.28668	-0.0604248	0.000762939	
2.28333	-0.0592041	0.000610352	
2.2818	-0.0604248	0.000152588	
2.28119	-0.0588989	0	
2.27936	-0.0564575	0.000762939	
2.27753	-0.0558472	0.000305176	
2.276	-0.0552368	0.000457764	
2.2757	-0.0534058	0.000457764	
2.2757	-0.0506592	0.000457764	
2.276	-0.050354	0.000610352	
2.276	-0.050354	0.00106812	
2.27631	-0.0482178	0.000762939	
2.2757	-0.0454712	0.000610352	
2.27539	-0.045166	0.000610352	
2.276	-0.0454712	0.000457764	
2.27661	-0.043335	0.000610352	
2.2757	-0.0411987	0.000457764	
2.27631	-0.0405884	-0.000457764	
2.27539	-0.0402832	-0.000457764	
2.27539	-0.0384521	0.000610352	
2.276	-0.0363159	0.000610352	
2.27631	-0.0354004	0.000762939	
2.26685	-0.0357056	0.000457764	
2.25525	-0.0338745	0.000762939	
2.25159	-0.0314331	0.000457764	
2.24945	-0.0311279	0.000610352	
2.24731	-0.0283813	0.000457764	
2.24457	-0.0262451	0.000915527	
2.24213	-0.0259399	0.000915527	
2.24152	-0.0265503	0.000610352	
2.23907	-0.0234985	-0.000305176	
2.23785	-0.0219727	0	
2.23663	-0.0210571	0.000152588	
2.23572	-0.0189209	0.000152588	
2.23663	-0.0164795	0.000457764	
2.23694	-0.0158691	0.000457764	
2.23663	-0.0137329	0.000305176	
2.23602	-0.0112915	0.00106812	
2.23602	-0.0109863	0.0012207	
2.229	-0.0115967	0.000762939	
2.21832	-0.00915527	0.000610352	
2.21344	-0.00640869	0.000305176	
2.21222	-0.00610352	0.000762939	
2.21039	-0.00396729	0.000457764	
2.20764	-0.00152588	0.000457764	
2.2052	-0.00152588	0.000305176	
2.20215	0.000610352	0.000457764	
2.20184	0.00274658	0.000305176	
2.1994	0.00335693	0.000457764	
2.19727	0.00518799	0.000610352	
2.19696	0.00793457	0.000915527	
2.19482	0.00823975	0.000762939	
2.19269	0.010376	0.000457764	
2.19055	0.0125122	0.000457764	
2.18811	0.0131226	0.000610352	
2.18689	0.0149536	0.000915527	
2.18567	0.017395	0.000457764	
2.18323	0.0186157	-0.000457764	
2.18201	0.0198364	-0.000305176	
2.18292	0.022583	0.000152588	
2.18262	0.0228882	0.000457764	
2.1817	0.0256348	0.000152588	
2.18231	0.0271606	0.000457764	
2.1817	0.027771	0.000762939	
2.18262	0.0302124	0.000915527	
2.18201	0.0314331	0.000610352	
2.18292	0.0323486	0.000305176	
2.18231	0.03479	0.000152588	
2.18262	0.0372314	0.000305176	
2.18231	0.0375366	0.000305176	
2.18231	0.0402832	-0.000457764	
2.18231	0.0421143	0.000152588	
2.18201	0.0424194	0.000305176	
2.18262	0.0445557	0	
2.18292	0.0469971	0.000152588	
2.18231	0.0473022	0.000457764	
2.18292	0.050354	0.000305176	
2.18323	0.0515747	0.0012207	
2.18201	0.0524902	0.00137329	
2.18231	0.0549316	0.000762939	
2.1817	0.0570679	0.000610352	
2.18323	0.0576782	0.000915527	
2.1814	0.0592041	0.000305176	
2.18292	0.0619507	0.000457764	
2.18231	0.0640869	0.000305176	
2.18292	0.0671387	0.000305176	
2.18201	0.0668335	0.000457764	
2.18262	0.0692749	0.000152588	
2.18262	0.0714111	0.000305176	
2.18262	0.0726318	0.000762939	
2.18292	0.0744629	0.00106812	
2.18201	0.0759888	0.000457764	
2.18201	0.0769043	0.00106812	
2.18201	0.0793457	0.000915527	
2.18201	0.0805664	0.000915527	
2.18262	0.0814819	0.000610352	
2.15363	0.083313	0.000305176	
2.11731	0.0854492	0	
2.10602	0.0863647	-0.000457764	
2.10144	0.0881958	0.000152588	
2.099	0.090332	0.000305176	
2.09869	0.0912476	0	
2.09656	0.0927734	0.000457764	
2.09381	0.0946045	0.000610352	
2.0932	0.0979614	0.000762939	
2.09167	0.100708	0.000762939	
2.08923	0.100708	0.000762939	
2.08862	0.102844	0.000762939	
2.08801	0.105591	0.000457764	
2.08862	0.106201	0	
2.08801	0.108337	-0.000152588	
2.08832	0.109863	0.000305176	
2.08862	0.110168	0.000305176	
2.08618	0.112305	0.000152588	
2.08435	0.115051	0.000305176	
2.08374	0.115356	0.000457764	
2.0816	0.118103	0.000305176	
2.07916	0.120239	0.0012207	
2.07886	0.12085	0.00137329	
2.07672	0.122986	0.000915527	
2.07428	0.124512	0.000762939	
2.07336	0.126038	0.000762939	
2.07397	0.127563	0.000457764	
2.07336	0.1297	0.000152588	
2.07367	0.1297	0.000457764	
2.07275	0.132751	0.000305176	
2.07367	0.134277	0.000305176	
2.07336	0.135193	0.000305176	
2.07367	0.136719	0.000610352	
2.07367	0.13916	0.000457764	
2.07336	0.140686	0.00106812	
2.07275	0.142517	0.000457764	
2.07336	0.144653	0.000762939	
2.07306	0.144653	0.000152588	
2.07367	0.145874	0.000610352	
2.07367	0.147705	0.000457764	
2.07367	0.149536	0.000305176	
2.07367	0.149536	-0.000152588	
2.07336	0.151978	-0.000457764	
2.07336	0.154419	0.000610352	
2.07397	0.154419	0.000457764	
2.07336	0.15686	0.000152588	
2.07367	0.158997	-0.000152588	
2.07336	0.159607	0.000457764	
2.07306	0.162048	0.000762939	
2.07367	0.163574	0.000152588	
2.05292	0.16449	0.000610352	
2.02881	0.163574	0.000457764	
2.02057	0.166626	0.000457764	
2.01813	0.169067	0.000152588	
2.01508	0.169373	0	
2.01447	0.171204	0.000457764	
2.01324	0.17395	0.000305176	
2.01019	0.173645	0.000152588	
2.00958	0.174866	0.000305176	
2.00806	0.176392	-0.000152588	
2.00562	0.178833	0.000305176	
2.00531	0.179749	0.00152588	
2.00439	0.18158	0.000762939	
2.0047	0.183411	0.000305176	
2.0047	0.184937	0.000457764	
2.0047	0.184326	0.000457764	
2.00439	0.186157	0.000915527	
2.0047	0.188293	0	
2.00439	0.189209	0.000305176	
2.00409	0.189209	0.000305176	
2.0047	0.191345	0.000915527	
2.005	0.193787	0	
2.00439	0.193787	0.000305176	
1.9989	0.194092	0.000762939	
1.99036	0.196228	0.00106812	
1.98517	0.198669	0.000762939	
1.98456	0.198364	0.000762939	
1.98303	0.198669	0.000915527	
1.9812	0.201416	0.000915527	
1.98059	0.203552	0.00106812	
1.97998	0.204468	0.000457764	
1.97754	0.203552	0	
1.97571	0.203552	-0.000152588	
1.9754	0.205688	0.000457764	
1.9751	0.207825	0.000610352	
1.97449	0.209045	0.000152588	
1.9751	0.20874	0.000457764	
1.97357	0.210571	0.000457764	
1.97113	0.213318	0.000457764	
1.97083	0.213928	0.000457764	
1.96777	0.213318	0.000457764	
1.96625	0.213928	0.000610352	
1.96533	0.216064	0.000152588	
1.9635	0.217896	0.000305176	
1.96045	0.218506	-0.000152588	
1.96014	0.217896	0.000457764	
1.95831	0.219116	0.000457764	
1.95679	0.218201	0.000152588	
1.95557	0.220337	0.000152588	
1.95557	0.222473	0.000152588	
1.95343	0.223694	0.000610352	
1.95129	0.223694	0.00137329	
1.95099	0.222778	0.0012207	
1.94794	0.22522	0.000610352	
1.94702	0.228271	0.000457764	
1.94519	0.227661	0.000610352	
1.94336	0.228271	0.000457764	
1.94153	0.227661	0.000152588	
1.94092	0.228271	0.000305176	
1.93909	0.230713	0.000305176	
1.93665	0.232544	0.000457764	
1.93573	0.233154	0.000305176	
1.93604	0.233459	0.000152588	
1.9339	0.233154	0.000457764	
1.93207	0.233765	0.0012207	
1.93024	0.234375	0.000610352	
1.92902	0.235596	0.00106812	
1.92627	0.236816	0.000762939	
1.92566	0.238342	0.000762939	
1.92413	0.238647	0.000915527	
1.922	0.238342	0.000457764	
1.92078	0.237732	-0.000305176	
1.92047	0.238037	-0.000152588	
1.91925	0.238037	0.000610352	
1.9162	0.240479	0.000457764	
1.9162	0.243225	0	
1.91498	0.24292	0.000305176	
1.91559	0.24292	0.000457764	
1.91528	0.242004	0.000610352	
1.91559	0.24292	0.000915527	
1.9104	0.24292	0.000610352	
1.90155	0.24353	0.000457764	
1.89758	0.24353	0.000610352	
1.89545	0.24292	0.000305176	
1.89453	0.244751	-0.000305176	
1.89178	0.247803	0.000305176	
1.89117	0.248413	0	
1.89087	0.248718	0.000305176	
1.88965	0.247803	-0.000152588	
1.88629	0.247803	0.000152588	
1.88629	0.247498	0.000762939	
1.88385	0.248108	0.00106812	
1.88232	0.247498	0.0012207	
1.88141	0.247803	0.000457764	
1.88141	0.248108	0.000457764	
1.87958	0.248718	0.000915527	
1.87775	0.248108	0.000457764	
1.87683	0.248108	0.000610352	
1.87469	0.250244	0.000457764	
1.87256	0.25177	0.000152588	
1.87103	0.252686	0.000610352	
1.87164	0.252991	0.000152588	
1.87164	0.25238	0.000305176	
1.87164	0.252686	0.000915527	
1.87164	0.252991	0.000915527	
1.86981	0.252991	0.000762939	
1.86737	0.25238	0.000915527	
1.86737	0.252686	0.000762939	
1.86615	0.25238	0.000915527	
1.86493	0.252686	0.000762939	
1.86249	0.252991	0.000610352	
1.86188	0.252991	-0.000457764	
1.85974	0.253296	-0.000457764	
1.8573	0.253906	0.000610352	
1.8576	0.252991	0.000305176	
1.85699	0.252991	0.000305176	
1.85547	0.253601	0.000610352	
1.85272	0.252686	0.000610352	
1.85211	0.25238	0.000915527	
1.85211	0.25238	0.000457764	
1.85059	0.253906	0.000152588	
1.84814	0.252991	0.000305176	
1.84753	0.252991	0.000762939	
1.84662	0.253296	-0.000152588	
1.84662	0.252991	-0.000152588	
1.84692	0.252686	0	
1.84692	0.252686	0.000152588	
1.84692	0.252686	0.000152588	
1.84662	0.252686	0.000152588	
1.84601	0.252686	0.000305176	
1.84723	0.25238	0.000305176	
1.84662	0.252991	0.00183105	
1.84692	0.252991	0.00106812	
1.84723	0.252686	0.000457764	
1.84662	0.252686	0.000457764	
1.84692	0.252686	0.000610352	
1.84662	0.253601	0.00106812	
1.84631	0.25238	0.000152588	
1.84692	0.252686	0.000305176	
1.84631	0.252991	0.000457764	
1.84631	0.25238	0.000305176	
1.84692	0.253296	0.000457764	
1.83563	0.25116	0.000305176	
1.82159	0.248413	0.000762939	
1.81763	0.248108	0.000915527	
1.8158	0.248413	0.000457764	
1.81244	0.248108	0.000762939	
1.81213	0.248108	0.000457764	
1.81213	0.246887	0.00106812	
1.8103	0.248413	0.000762939	
1.80817	0.248413	0.000457764	
1.80756	0.247803	-0.000457764	
1.80725	0.248108	0	
1.80664	0.248108	0.000152588	
1.80725	0.248108	0	
1.80664	0.248108	0	
1.80786	0.247803	0.000152588	
1.80542	0.245972	0.000610352	
1.80298	0.244141	0.000915527	
1.80267	0.244141	0.000762939	
1.80267	0.243225	0.000457764	
1.80023	0.243225	0.000610352	
1.7981	0.24353	0.000305176	
1.7981	0.24353	0	
1.79779	0.24292	0	
1.79749	0.24292	0.000152588	
1.79626	0.24353	0.000305176	
1.79352	0.242615	0	
1.7923	0.242615	0	
1.7926	0.240784	0.000152588	
1.79077	0.238647	0.000305176	
1.78802	0.238647	0.000915527	
1.78772	0.238037	0.0012207	
1.78741	0.238342	0.000457764	
1.78619	0.237732	0.000610352	
1.78345	0.238647	0.000915527	
1.78314	0.237732	0.00106812	
1.78284	0.238342	0.000305176	
1.78101	0.236816	0.000457764	
1.77856	0.233765	0.000152588	
1.77795	0.233459	0.000762939	
1.77856	0.233154	0.000305176	
1.77612	0.234375	0.000610352	
1.77368	0.233459	0.000610352	
1.77338	0.23407	0.0012207	
1.77246	0.233459	0.000610352	
1.77277	0.231323	0.000915527	
1.77338	0.228882	0.000762939	
1.77277	0.228271	0.000762939	
1.77307	0.228882	0.000915527	
1.77277	0.228882	0.000610352	
1.77307	0.228271	-0.000152588	
1.77277	0.228271	-0.000457764	
1.77307	0.228882	0.000152588	
1.77307	0.226135	0.000152588	
1.77277	0.223694	0.000457764	
1.77307	0.223083	0.000305176	
1.77307	0.223083	0.000305176	
1.77307	0.223389	0.000762939	
1.77277	0.223389	0.000915527	
1.77246	0.223694	0.000152588	
1.77277	0.221863	0.000915527	
1.77277	0.219421	0.000610352	
1.77307	0.217896	0.000305176	
1.77307	0.218201	-0.000305176	
1.77277	0.218201	0.000152588	
1.76422	0.218201	0.000152588	
1.75201	0.216675	0	
1.74683	0.214233	0	
1.74377	0.213928	0.000152588	
1.74316	0.213623	0.000152588	
1.74347	0.214539	0.00137329	
1.74347	0.213928	0.00137329	
1.74133	0.211792	0.000457764	
1.7392	0.209045	0.000457764	
1.73798	0.209045	0.000762939	
1.73737	0.208435	0.000610352	
1.73828	0.209045	0.000152588	
1.73828	0.20874	0.000457764	
1.73828	0.20752	0.000152588	
1.73828	0.204468	0.000762939	
1.73828	0.204163	0.000457764	
1.73828	0.204163	0.000610352	
1.73767	0.203857	0.000305176	
1.73828	0.203857	0.0012207	
1.73798	0.202026	0.00106812	
1.73737	0.19928	0.000610352	
1.73767	0.198975	0.000915527	
1.73828	0.19928	0.000762939	
1.73828	0.198975	0.000762939	
1.73828	0.198975	0.000915527	
1.73828	0.197144	-0.000762939	
1.73859	0.195007	0	
1.73828	0.194397	0.000457764	
1.73889	0.193787	0.000152588	
1.73828	0.193787	0.000305176	
1.72882	0.191956	0.000457764	
1.71783	0.189819	0.000305176	
1.71448	0.189209	0.000762939	
1.71326	0.189514	0.000762939	
1.71417	0.189209	0.000457764	
1.71204	0.189209	0.000915527	
1.71021	0.187378	0.000762939	
1.70898	0.184937	0.000152588	
1.70868	0.184326	0	
1.70898	0.184631	0.000305176	
1.70898	0.184631	0.000305176	
1.70837	0.181885	0	
1.70868	0.180054	0.000457764	
1.70898	0.179138	0.000305176	
1.70868	0.179138	0.000610352	
1.70929	0.179749	0.0012207	
1.70288	0.177307	0.00106812	
1.69647	0.173645	0.000610352	
1.69525	0.17395	0.000915527	
1.69373	0.174255	0.000915527	
1.69403	0.173645	0.000457764	
1.69189	0.174561	0.000305176	
1.69037	0.172424	0.000610352	
1.68976	0.169678	0.000305176	
1.68884	0.169983	0.000610352	
1.68884	0.169678	0.000152588	
1.68854	0.169678	0.000457764	
1.68854	0.167542	0.000762939	
1.68854	0.16571	0.0012207	
1.68945	0.16449	0.00106812	
1.68945	0.163879	0.000762939	
1.68854	0.164795	0.000457764	
1.68945	0.162354	0.000915527	
1.68976	0.159912	0.000762939	
1.68884	0.159302	0.000610352	
1.68976	0.159302	-0.000457764	
1.68884	0.159607	-0.000152588	
1.68945	0.159607	0.000305176	
1.68915	0.157471	0	
1.68854	0.155334	0.000305176	
1.68945	0.155029	0.000305176	
1.68945	0.155334	0.000457764	
1.68884	0.155029	0.000762939	
1.68854	0.153198	0.00106812	
1.68915	0.150757	0.000457764	
1.68884	0.149536	0.000762939	
1.68152	0.150146	0.000457764	
1.67084	0.149841	0.000305176	
1.66565	0.148621	-0.000152588	
1.66412	0.145264	0.000305176	
1.66443	0.145264	0	
1.66382	0.145264	0.000305176	
1.66168	0.144653	0.000305176	
1.66046	0.145569	0	
1.65985	0.143127	0.000610352	
1.66016	0.141296	0.00152588	
1.65894	0.139771	0.0012207	
1.65894	0.140076	0.000610352	
1.65894	0.139771	0.000610352	
1.65955	0.137634	0.000305176	
1.65924	0.135803	0.000915527	
1.65924	0.135803	0.000152588	
1.65894	0.135193	0.000457764	
1.65955	0.135193	0.000305176	
1.65924	0.135193	0.000610352	
1.66016	0.133667	0.000152588	
1.65955	0.131226	0.000305176	
1.65924	0.130005	0.000610352	
1.65894	0.13092	0.00106812	
1.65894	0.130615	0.000762939	
1.65894	0.128479	0.000915527	
1.65985	0.126038	0.000762939	
1.65894	0.125732	0.000762939	
1.65863	0.125427	0.000915527	
1.65894	0.125427	0.000762939	
1.65894	0.125732	-0.000305176	
1.65924	0.123901	-0.000305176	
1.65894	0.12146	0.000152588	
1.66016	0.120544	0.000762939	
1.65955	0.12085	0.000152588	
1.65955	0.120544	0.000305176	
1.65924	0.120544	0.000305176	
1.65863	0.118103	0.000610352	
1.65894	0.115662	0.000610352	
1.66016	0.115967	0.000305176	
1.65955	0.115356	0.000610352	
1.66016	0.115662	0.000457764	
1.65955	0.115662	0.000305176	
1.65894	0.113831	0.000152588	
1.65924	0.110779	0.000305176	
1.65924	0.110779	0.000457764	
1.65924	0.111389	0	
1.65924	0.110474	0.000457764	
1.65924	0.110474	0.000305176	
1.65894	0.109253	0.000152588	
1.65863	0.106506	0.0012207	
1.65894	0.105591	0.00106812	
1.66016	0.105896	0.000457764	
1.65894	0.105896	0.000305176	
1.65924	0.106201	0.000762939	
1.65955	0.10437	0.000610352	
1.65955	0.101929	0.000305176	
1.65924	0.100708	0.000305176	
1.65955	0.100708	0.000305176	
1.65924	0.101318	0.000762939	
1.65924	0.100708	0.000457764	
1.65924	0.101318	0	
1.65894	0.0991821	0.000762939	
1.65924	0.0964355	0.00106812	
1.65924	0.0958252	0.000610352	
1.65955	0.0961304	0.000457764	
1.65894	0.09552	0.000762939	
1.65894	0.0961304	0.000915527	
1.66016	0.0958252	0.000762939	
1.65924	0.093689	0.000457764	
1.65894	0.0924683	-0.000305176	
1.65894	0.0915527	-0.000152588	
1.65955	0.0912476	0.000610352	
1.65924	0.0906372	0.000610352	
1.65863	0.0909424	0.000152588	
1.65894	0.0912476	0.000305176	
1.65863	0.0878906	0.000457764	
1.65955	0.0869751	0.000915527	
1.65924	0.0866699	0.000915527	
1.65894	0.0863647	0.000610352	
1.65894	0.0860596	0.000610352	
1.65955	0.0863647	0.000915527	
1.65985	0.0863647	0.000305176	
1.65924	0.0860596	0.000152588	
1.65894	0.0842285	0.000457764	
1.65985	0.0820923	0.000457764	
1.65863	0.0808716	0	
1.65924	0.0811768	0.000152588	
1.65894	0.0808716	0	
1.65924	0.0814819	0.000610352	
1.65924	0.0811768	0.00167847	
1.65863	0.0811768	0.00137329	
1.65894	0.0802612	0.00106812	
1.65924	0.0775146	0.000610352	
1.65924	0.0775146	0.000915527	
1.65924	0.0772095	0.000762939	
1.65863	0.0765991	0.000457764	
1.66016	0.0772095	0.000457764	
1.65894	0.0775146	0.000305176	
1.65924	0.0775146	0.000305176	
1.65955	0.0775146	0.000152588	
1.65894	0.0762939	0.000305176	
1.65924	0.0756836	0.000762939	
1.65863	0.0723267	0.00106812	
1.65985	0.0723267	0.000457764	
1.65924	0.0720215	0.00106812	
1.65894	0.0720215	0.000610352	
1.65924	0.0726318	0.000610352	
1.65924	0.0723267	0.000457764	
1.62964	0.0723267	0.000457764	
1.59241	0.0720215	-0.000152588	
1.58203	0.0723267	-0.000152588	
1.57959	0.0701904	0.000457764	
1.57959	0.0674438	0.000305176	
1.57867	0.0668335	0.000305176	
1.57654	0.0668335	0	
1.57562	0.0668335	0.000305176	
1.57532	0.0680542	0.000762939	
1.57501	0.0668335	0.000457764	
1.57532	0.067749	0.000305176	
1.57501	0.0674438	0.000915527	
1.57501	0.0674438	0.000610352	
1.57471	0.067749	0.000305176	
1.57532	0.0656128	0.000152588	
1.57501	0.0631714	0.000152588	
1.57532	0.062561	0.000305176	
1.57288	0.0616455	0.000152588	
1.57135	0.0616455	0.000457764	
1.57074	0.0622559	0.000305176	
1.57043	0.0622559	0.000152588	
1.57074	0.0622559	0.0012207	
1.57013	0.0619507	0.00137329	
1.57074	0.0622559	0.000762939	
1.57043	0.0622559	0.000762939	
1.56982	0.0622559	0.00106812	
1.57013	0.0598145	0.000610352	
1.57074	0.0576782	0.000152588	
1.57074	0.0570679	0.000305176	
1.57074	0.0576782	0.000457764	
1.57074	0.0576782	0.000610352	
1.57013	0.057373	0	
1.57013	0.057373	0	
1.57104	0.0579834	0.000305176	
1.57104	0.057373	0.00106812	
1.57074	0.057373	0.000762939	
1.57074	0.057373	0.000762939	
1.57013	0.057373	0.000457764	
1.57013	0.0579834	0.00106812	
1.57013	0.0579834	0.000610352	
1.57074	0.0552368	0.000762939	
1.57074	0.0524902	-0.000457764	
1.57043	0.0524902	0.000152588	
1.57013	0.0518799	0.000305176	
1.57013	0.0527954	0.000457764	
1.56982	0.0527954	-0.000152588	
1.57043	0.0524902	0.000762939	
1.57043	0.0521851	0.000305176	
1.57074	0.0524902	0.000915527	
1.56952	0.0521851	0.000610352	
1.56311	0.0527954	0.000610352	
1.55426	0.0531006	0.000457764	
1.54907	0.0524902	0.000457764	
1.54694	0.0527954	0.000152588	
1.54572	0.0524902	0.000457764	
1.54663	0.0527954	0	
1.54602	0.0506592	-0.000152588	
1.54572	0.0469971	-0.000152588	
1.54633	0.0479126	0.000152588	
1.54572	0.0479126	0	
1.54633	0.0473022	0.000305176	
1.5448	0.0479126	0.00152588	
1.54175	0.0476074	0.0012207	
1.54144	0.0476074	0.000762939	
1.54083	0.0476074	0.000762939	
1.54053	0.0479126	0.00106812	
1.54144	0.0479126	0.000915527	
1.54144	0.0473022	0.000457764	
1.54144	0.0476074	0	
1.54053	0.0482178	0.000305176	
1.54114	0.0476074	0.000305176	
1.54053	0.0479126	0.000305176	
1.54144	0.0476074	0.000762939	
1.54114	0.0482178	0.000457764	
1.54022	0.0454712	0.000915527	
1.539	0.0439453	0.000762939	
1.53717	0.0430298	0.000610352	
1.53625	0.043335	0.000915527	
1.53656	0.0430298	0.000610352	
1.53595	0.0427246	0.000915527	
1.53656	0.0430298	0.000915527	
1.53687	0.0430298	-0.000152588	
1.53625	0.043335	-0.000305176	
1.53595	0.0424194	0.000305176	
1.53381	0.0427246	0.000457764	
1.53168	0.0430298	0.000305176	
1.53137	0.0424194	0.000305176	
1.53107	0.0430298	0.000457764	
1.53198	0.043335	0.000762939	
1.53107	0.0436401	0.000457764	
1.53076	0.0430298	0.000305176	
1.53168	0.0430298	0.000610352	
1.53137	0.0430298	0.000610352	
1.53107	0.0430298	0.000305176	
1.53107	0.0408936	-0.000305176	
1.53137	0.0390625	0.000152588	
1.53107	0.0375366	0.000152588	
1.53046	0.0375366	0.000152588	
1.53076	0.0375366	0.000305176	
1.53137	0.0378418	0	
1.53137	0.0375366	0.000457764	
1.53137	0.0375366	0.00137329	
1.53046	0.0378418	0.00137329	
1.53137	0.0375366	0.000457764	
1.53046	0.0375366	0.000610352	
1.53046	0.0384521	0.000915527	
1.53107	0.0375366	0.000915527	
1.53137	0.0369263	0.000152588	
1.53107	0.0375366	0.000305176	
1.53168	0.0378418	0.000457764	
1.53107	0.0375366	0.000305176	
1.53107	0.0375366	0.000305176	
1.53107	0.0372314	0.000152588	
1.53137	0.0378418	0.000762939	
1.53107	0.0360107	0.000915527	
1.53137	0.032959	0.000610352	
1.53046	0.032959	0.000610352	
1.53076	0.032959	0.000457764	
1.53168	0.0332642	0.000915527	
1.53076	0.032959	0.000762939	
1.53137	0.0323486	0.000915527	
1.53107	0.0335693	-0.000152588	
1.53107	0.032959	-0.000457764	
1.53137	0.0332642	0.000305176	
1.53137	0.0335693	0.000610352	
1.53168	0.0326538	0.000305176	
1.53168	0.0320435	0	
1.53107	0.0326538	0.000457764	
1.53107	0.0332642	0.000915527	
1.53107	0.0335693	0.000457764	
1.53076	0.0326538	0.000305176	
1.53137	0.0326538	0.000457764	
1.53137	0.0323486	0.000762939	
1.53168	0.032959	0	
1.53046	0.0308228	0	
1.53137	0.0286865	0	
1.53137	0.027771	0.000457764	
1.53168	0.027771	0.000305176	
1.53137	0.0271606	0.000305176	
1.53076	0.0280762	0.000152588	
1.53107	0.0274658	0.000152588	
1.53107	0.0283813	0.000610352	
1.53076	0.0286865	0.00152588	
1.53137	0.027771	0.000305176	
1.53076	0.0280762	0.000762939	
1.53107	0.0286865	0.000915527	
1.53076	0.0280762	0.000762939	
1.53107	0.0271606	0.000152588	
1.53046	0.027771	0.000457764	
1.53107	0.0271606	0	
1.53137	0.027771	0.000610352	
1.53107	0.0274658	0.000610352	
1.53076	0.0280762	0.000457764	
1.51978	0.0259399	0.000610352	
1.50604	0.0238037	0.00106812	
1.50116	0.0231934	0.000762939	
1.50116	0.0231934	0.000457764	
1.49933	0.0231934	0.000762939	
1.4978	0.0231934	0.00106812	
1.49689	0.0228882	0.000457764	
1.49567	0.0234985	0.000305176	
1.49628	0.0231934	-0.000305176	
1.49628	0.0228882	-0.000457764	
1.49597	0.0231934	0.000305176	
1.49658	0.0231934	0.000152588	
1.49689	0.0231934	0.000305176	
1.49658	0.0231934	0.000152588	
1.49658	0.0231934	0.000457764	
1.49658	0.0231934	0.000915527	
1.49628	0.022583	0.000762939	
1.49597	0.0210571	0.000305176	
1.49658	0.0189209	0.00106812	
1.49628	0.0183105	0.000610352	
1.49628	0.0177002	0.000457764	
1.49628	0.0183105	0.000152588	
1.49353	0.0183105	-0.000152588	
1.49231	0.0180054	0.000457764	
1.49109	0.0183105	0.000152588	
1.4917	0.0177002	-0.000152588	
1.49109	0.0186157	0.000152588	
1.49231	0.0186157	0.000152588	
1.49139	0.0183105	0.00137329	
1.4917	0.0186157	0.00152588	
1.492	0.0183105	0.000457764	
1.4917	0.0189209	0.000457764	
1.49139	0.0164795	0.000457764	
1.49231	0.0140381	0.000762939	
1.49139	0.0134277	0.000457764	
1.49109	0.0131226	0.000305176	
1.49139	0.0128174	0	
1.49139	0.0134277	0.000305176	
1.49231	0.0131226	0.000152588	
1.4917	0.0131226	0	
1.492	0.0137329	0.000762939	
1.49139	0.0137329	0.000915527	
1.492	0.0131226	0.000762939	
1.4917	0.0131226	0.000610352	
1.492	0.0128174	0.000762939	
1.492	0.0134277	0.000915527	
1.4917	0.0134277	0.000762939	
1.49139	0.0112915	0.000762939	
1.4917	0.0088501	-0.000152588	
1.4917	0.00823975	-0.000457764	
1.49139	0.00854492	0.000457764	
1.49139	0.00823975	0.000762939	
1.49109	0.00793457	0.000152588	
1.49109	0.00854492	0.000457764	
1.4917	0.00823975	0.000305176	
1.49109	0.00854492	0.000610352	
1.4917	0.00793457	0.000610352	
1.49139	0.00762939	0.000152588	
1.49078	0.00793457	0.000762939	
1.48621	0.00823975	0.000610352	
1.47949	0.00640869	0.000457764	
1.47705	0.00396729	0	
1.47644	0.00274658	0.000457764	
1.47644	0.00366211	0	
1.47705	0.00366211	0	
1.47644	0.00335693	0.000152588	
1.47614	0.00366211	0.000610352	
1.47675	0.00335693	0.000152588	
1.47644	0.00335693	0.00137329	
1.47644	0.00335693	0.00152588	
1.47766	0.00305176	0.000305176	
1.47705	0.00366211	0.000305176	
1.47736	0.00152588	0.000457764	
1.47705	-0.000610352	0.000610352	
1.47705	-0.00213623	0.000152588	
1.47705	-0.00183105	0.000305176	
1.47644	-0.0012207	0	
1.47675	-0.000610352	0.000457764	
1.47705	-0.00183105	0	
1.47736	-0.000915527	0.000457764	
1.47644	-0.000915527	0.000610352	
1.47644	-0.0012207	0.00106812	
1.47614	-0.0012207	0.00106812	
1.47675	-0.00305176	0.000305176	
1.47644	-0.00610352	0.000457764	
1.47705	-0.00610352	0.00106812	
1.47675	-0.00640869	0.00106812	
1.47675	-0.00610352	0.000610352	
1.47736	-0.00549316	-0.000305176	
1.47675	-0.00610352	-0.000152588	
1.47675	-0.00579834	0.000610352	
1.47705	-0.00610352	0.000305176	
1.47705	-0.00671387	-0.000152588	
1.47705	-0.00579834	0	
1.47675	-0.00793457	0.000457764	
1.47675	-0.00976563	0.000457764	
1.47705	-0.0109863	0.000915527	
1.47675	-0.0112915	0.000152588	
1.47644	-0.010376	0.000762939	
1.47736	-0.0106812	0.000610352	
1.47736	-0.0112915	0.000152588	
1.47614	-0.0109863	-0.000305176	
1.47705	-0.0109863	0.000152588	
1.47675	-0.0106812	0.000305176	
1.47675	-0.012207	0.000305176	
1.47644	-0.015564	0.000457764	
1.47705	-0.0161743	0.000152588	
1.47644	-0.0164795	0.000457764	
1.47675	-0.0161743	0.0012207	
1.47736	-0.0164795	0.00167847	
1.47766	-0.015564	0.000610352	
1.47675	-0.0161743	0.000457764	
1.47736	-0.015564	0.000915527	
1.47644	-0.0158691	0.000762939	
1.47675	-0.0186157	0.000305176	
1.47675	-0.0201416	0.000152588	
1.47675	-0.0213623	0.000152588	
1.47675	-0.0210571	0.000762939	
1.47736	-0.0210571	0.000152588	
1.47675	-0.0210571	0.000152588	
1.47705	-0.0213623	0.000457764	
1.47675	-0.0213623	0.000915527	
1.47675	-0.0210571	0.000915527	
1.47736	-0.0234985	0.000457764	
1.47614	-0.0253296	0.000457764	
1.47675	-0.0256348	0.000915527	
1.47644	-0.0259399	0.000610352	
1.47675	-0.0259399	0.000762939	
1.47675	-0.0259399	-0.000152588	
1.47644	-0.0259399	-0.000305176	
1.47675	-0.0253296	0.000457764	
1.47705	-0.0253296	0.000610352	
1.47705	-0.0280762	0.000152588	
1.47644	-0.0296021	0.000152588	
1.47675	-0.0311279	0.000457764	
1.47644	-0.0317383	0.000915527	
1.47675	-0.0308228	0.000305176	
1.47675	-0.0308228	0.000305176	
1.47675	-0.0305176	0.000610352	
1.47705	-0.0302124	0.000457764	
1.47705	-0.0308228	0.000152588	
1.47644	-0.0326538	0	
1.47644	-0.0350952	0	
1.47644	-0.0350952	0.000610352	
1.47675	-0.0357056	0.000152588	
1.47675	-0.0360107	0.000305176	
1.47675	-0.0363159	0	
1.47675	-0.0354004	-0.000152588	
1.47705	-0.0357056	0.00137329	
1.47675	-0.0363159	0.00137329	
1.47644	-0.0372314	0.000610352	
1.47644	-0.0402832	0.000610352	
1.47644	-0.0405884	0.000915527	
1.47705	-0.039978	0.000762939	
1.47614	-0.0405884	0.000305176	
1.47705	-0.0408936	0.000305176	
1.47675	-0.0408936	0.000457764	
1.47675	-0.0408936	0.000610352	
1.47705	-0.0427246	0.000305176	
1.47705	-0.0445557	0.000305176	
1.47705	-0.0454712	0.000457764	
1.47705	-0.045166	0.000610352	
1.47644	-0.045166	0.000762939	
1.47675	-0.0457764	0.000457764	
1.47705	-0.0454712	0.000457764	
1.47766	-0.0448608	0.000762939	
1.47736	-0.0454712	0.000457764	
1.47614	-0.0479126	0.000915527	
1.47675	-0.0497437	-0.000152588	
1.47675	-0.0500488	-0.000305176	
1.47675	-0.0506592	0.000305176	
1.47675	-0.0500488	0.000762939	
1.47644	-0.0506592	0	
1.47644	-0.050354	0.000305176	
1.47614	-0.0509644	0.000457764	
1.47644	-0.0506592	0.000915527	
1.47644	-0.0524902	0.000762939	
1.47614	-0.0546265	0.000457764	
1.47766	-0.055542	0.000305176	
1.47675	-0.055542	0.000457764	
1.47675	-0.055542	0.000305176	
1.47705	-0.055542	0	
1.47675	-0.0552368	0.000305176	
1.47644	-0.0546265	0.000152588	
1.47644	-0.0567627	0.000152588	
1.47644	-0.0598145	0.000305176	
1.47736	-0.0604248	0.000457764	
1.47675	-0.0604248	0.000305176	
1.47675	-0.0604248	0.00152588	
1.47675	-0.0604248	0.0012207	
1.47675	-0.0604248	0.000762939	
1.47705	-0.0604248	0.000152588	
1.47675	-0.0622559	0.000915527	
1.47736	-0.0637817	0.00106812	
1.47614	-0.0656128	0.000305176	
1.47675	-0.0656128	0.000305176	
1.47675	-0.0650024	0.000305176	
1.47614	-0.0650024	0.000610352	
1.47644	-0.0646973	-0.000152588	
1.47644	-0.0653076	0.000152588	
1.47644	-0.0646973	0.000457764	
1.47614	-0.0668335	0.000762939	
1.47705	-0.0689697	0.000610352	
1.47675	-0.0701904	0.000915527	
1.47675	-0.0704956	0.000610352	
1.47705	-0.0695801	0.000915527	
1.47675	-0.0698853	0.000762939	
1.47644	-0.0704956	0.00106812	
1.47675	-0.0701904	-0.000305176	
1.47675	-0.0726318	-0.000152588	
1.47736	-0.0747681	0.000152588	
1.47644	-0.0750732	0.000762939	
1.47675	-0.0747681	0	
1.47644	-0.0753784	0	
1.47644	-0.0753784	0.000610352	
1.47705	-0.0753784	0.000762939	
1.47675	-0.0741577	0.000610352	
1.47736	-0.0747681	0	
1.47644	-0.0772095	0.000762939	
1.47705	-0.0793457	0.000610352	
1.47705	-0.0793457	0.000305176	
1.47644	-0.0799561	0.000152588	
1.47705	-0.0799561	0.000152588	
1.47736	-0.0799561	0.000152588	
1.47675	-0.0796509	-0.000152588	
1.47644	-0.0796509	0.000152588	
1.47705	-0.0817871	0.000457764	
1.47644	-0.0839233	0.000305176	
1.47736	-0.0848389	0.000915527	
1.47675	-0.0845337	0.00137329	
1.47644	-0.0845337	0.000610352	
1.47675	-0.0848389	0.000305176	
1.47675	-0.0848389	0.000915527	
1.47675	-0.0848389	0.000915527	
1.47675	-0.085144	0.000762939	
1.47705	-0.0866699	0.000152588	
1.47644	-0.088501	0.000305176	
1.47675	-0.0897217	0.000610352	
1.47705	-0.0897217	0.000457764	
1.47675	-0.0894165	0.000152588	
1.47614	-0.0897217	0.000762939	
1.47644	-0.0900269	0.000762939	
1.47675	-0.0897217	0.000610352	
1.47675	-0.0912476	0.000610352	
1.47675	-0.0942993	0.000762939	
1.47705	-0.0939941	0.000915527	
1.47644	-0.0942993	0.000457764	
1.47736	-0.09552	0.000610352	
1.47736	-0.0946045	-0.000610352	
1.47705	-0.0942993	-0.000457764	
1.47644	-0.0949097	0.000457764	
1.47644	-0.0942993	0.000457764	
1.47736	-0.0961304	0.000152588	
1.47705	-0.098877	0	
1.47705	-0.0991821	0.000305176	
1.47644	-0.0991821	0.000610352	
1.47766	-0.098877	0.000762939	
1.47644	-0.0997925	0.000610352	
1.47675	-0.098877	0.000305176	
1.47705	-0.098877	0.000762939	
1.47644	-0.100403	0.000152588	
1.47583	-0.101318	0.000152588	
1.47705	-0.10376	0.000152588	
1.47705	-0.104675	0.000152588	
1.47675	-0.104675	0	
1.47705	-0.104675	0	
1.47675	-0.104675	-0.000152588	
1.47705	-0.104065	0.000610352	
1.47675	-0.104065	0.00106812	
1.47675	-0.104065	0.0012207	
1.47705	-0.104065	0.000305176	
1.47705	-0.106812	0.000457764	
1.47644	-0.108337	0.000915527	
1.47675	-0.108337	0.00106812	
1.47675	-0.109558	0.000457764	
1.47705	-0.108948	0.000152588	
1.47736	-0.109253	0.000152588	
1.47675	-0.108643	0.000762939	
1.47736	-0.109558	0.000305176	
1.47736	-0.108948	0.000457764	
1.47675	-0.109558	0.000610352	
1.47675	-0.111084	0.0012207	
1.47705	-0.113831	0.000915527	
1.47644	-0.114136	0.000610352	
1.47675	-0.113831	0.000762939	
1.47705	-0.114136	0.000915527	
1.47614	-0.114441	0.000762939	
1.47675	-0.113831	0.000305176	
1.47614	-0.114441	-0.000305176	
1.47675	-0.114441	-0.000457764	
1.47675	-0.113831	0.000457764	
1.47644	-0.114136	0.000457764	
1.47675	-0.116272	0.000305176	
1.47644	-0.118408	0.000152588	
1.47675	-0.119324	0.000762939	
1.47736	-0.119629	0.000915527	
1.47675	-0.119019	0.000762939	
1.47705	-0.119324	0.000152588	
1.47644	-0.118713	0.00106812	
1.47644	-0.119324	0.000457764	
1.47736	-0.119019	0.000305176	
1.47705	-0.118713	-0.000305176	
1.47736	-0.118713	0.000152588	
1.47675	-0.119324	0.000305176	
1.47705	-0.121155	-0.000152588	
1.47644	-0.123291	0.000305176	
1.47675	-0.123596	0.000305176	
1.47614	-0.124512	0.000457764	
1.47675	-0.124207	0.000915527	
1.47675	-0.124207	0.00167847	
1.47675	-0.124207	0.000762939	
1.47675	-0.123901	0.000762939	
1.47675	-0.123901	0.000610352	
1.47705	-0.124512	0.000915527	
1.47736	-0.123901	0.000152588	
1.47736	-0.124512	0	
1.47644	-0.126343	0.000457764	
1.47705	-0.127869	0.000457764	
1.47705	-0.128174	0.000457764	
1.47705	-0.128784	0.000305176	
1.47675	-0.129395	0.00137329	
1.47614	-0.128784	0.00106812	
1.47705	-0.128784	0.000762939	
1.47614	-0.128784	0.000762939	
1.47614	-0.128479	0.000762939	
1.47675	-0.128784	0.000457764	
1.47644	-0.127869	0.000610352	
1.47644	-0.128784	0.000610352	
1.47614	-0.129089	0	
1.47614	-0.129089	-0.000610352	
1.47644	-0.129089	0.000305176	
1.47675	-0.130615	0.000457764	
1.47675	-0.133057	0.000152588	
1.47614	-0.134277	0.000152588	
1.47614	-0.133972	0.000305176	
1.47644	-0.134583	0.000915527	
1.47583	-0.133972	0.000457764	
1.47614	-0.133972	0.000305176	
1.47583	-0.134277	0.000610352	
1.47614	-0.133362	0.000305176	
1.47675	-0.133972	0.000305176	
1.47614	-0.133362	0.000305176	
1.47736	-0.134583	0	
1.47644	-0.133972	0.000152588	
1.47736	-0.133972	0.000152588	
1.47705	-0.133667	-0.000152588	
1.47766	-0.134277	0.000152588	
1.47644	-0.134277	0.000762939	
1.47705	-0.135498	0.000762939	
1.47675	-0.138245	0.00152588	
1.47644	-0.138855	0.000457764	
1.47766	-0.138855	0.000305176	
1.47766	-0.137939	0.000610352	
1.47705	-0.138855	0.000915527	
1.47705	-0.138245	0.000610352	
1.47705	-0.138245	0.000152588	
1.47675	-0.13855	0.000152588	
1.47705	-0.138855	0.000457764	
1.47705	-0.139465	0.000457764	
1.47675	-0.138245	0	
1.47705	-0.13855	0.000762939	
1.47736	-0.13855	0.000915527	
1.47675	-0.13916	0.000915527	
1.47614	-0.138245	0.000762939	
1.47675	-0.139465	0.000457764	
1.47766	-0.138855	0.000610352	
1.47705	-0.137939	0.000610352	
1.47705	-0.13855	0.000610352	
1.47675	-0.139771	-0.000305176	
1.47675	-0.140381	-0.000305176	
1.47736	-0.143127	0.000457764	
1.47675	-0.144043	0.000610352	
1.47675	-0.144043	0.000152588	
1.47736	-0.144043	-0.000152588	
1.47675	-0.143127	0.000305176	
1.47614	-0.143433	0.00106812	
1.47675	-0.143127	0.000915527	
1.47705	-0.143738	0.000305176	
1.47675	-0.143127	0.00106812	
1.47644	-0.143433	0.000610352	
1.47705	-0.143127	0	
1.47705	-0.143433	-0.000152588	
1.47705	-0.143433	-0.000152588	
1.47736	-0.143433	0.000457764	
1.47675	-0.144043	0.000152588	
1.47675	-0.143738	0.000152588	
1.47705	-0.143738	0.000305176	
1.47675	-0.143433	0.000152588	
1.47675	-0.143433	0.00106812	
1.47675	-0.142517	0.00137329	
1.47675	-0.143127	0.000610352	
1.47705	-0.143738	0.000457764	
1.47705	-0.143127	0.000762939	
1.47705	-0.144043	0.000915527	
1.47705	-0.144348	0.000457764	
1.47705	-0.143433	0.000152588	
1.47705	-0.144348	0	
1.47675	-0.143738	0.000610352	
1.47675	-0.145569	0.000152588	
1.47675	-0.147705	0.000152588	
1.47644	-0.148621	0.000610352	
1.47705	-0.14801	0.000762939	
1.47736	-0.148621	0.00106812	
1.47644	-0.148621	0.000762939	
1.47705	-0.148315	0.000762939	
1.47736	-0.148315	0.000762939	
1.47736	-0.148315	0.000915527	
1.47705	-0.14801	0.000457764	
1.47736	-0.148315	0	
1.47644	-0.148926	-0.000610352	
1.47705	-0.148315	0.000305176	
1.47644	-0.148926	0.000152588	
1.47736	-0.148926	0.000152588	
1.47614	-0.148621	0.000457764	
1.47675	-0.148315	0.000305176	
1.47675	-0.14801	0.00106812	
1.47675	-0.147705	0.000762939	
1.48956	-0.14801	0.000457764	
1.50574	-0.148315	0.000915527	
1.51062	-0.148315	0.000457764	
1.51123	-0.148621	0	
1.51154	-0.148621	-0.000305176	
1.51093	-0.148621	-0.000152588	
1.51276	-0.148621	-0.000152588	
1.5152	-0.148926	-0.000305176	
1.51581	-0.148926	0	
1.51672	-0.148926	0	
1.51642	-0.148315	0.000152588	
1.51825	-0.148315	0.000762939	
1.52039	-0.148621	0.00152588	
1.52069	-0.148315	0.000457764	
1.5213	-0.148315	0.000305176	
1.52069	-0.14801	0.000915527	
1.52344	-0.148315	0.000610352	
1.52435	-0.14801	0	
1.52588	-0.148315	0.000152588	
1.52557	-0.148926	0	
1.52588	-0.148621	0.000762939	
1.52557	-0.148315	0	
1.52863	-0.148621	0.000457764	
1.53046	-0.148926	0.000457764	
1.53046	-0.148315	0.000305176	
1.53107	-0.148926	0.00106812	
1.53107	-0.148315	0.000610352	
1.53107	-0.148315	0.000457764	
1.53351	-0.148621	0.000457764	
1.53534	-0.148926	0.000610352	
1.53625	-0.147705	0.000610352	
1.53595	-0.148315	-0.000152588	
1.53595	-0.148315	-0.000305176	
1.53625	-0.148621	0.000152588	
1.53809	-0.148926	0.000305176	
1.54083	-0.148621	-0.000152588	
1.54083	-0.14801	0	
1.54114	-0.148621	0.000610352	
1.54022	-0.148621	0.000762939	
1.54144	-0.148926	0.000610352	
1.54297	-0.14801	0.000457764	
1.54572	-0.148621	0.000610352	
1.54541	-0.148621	0.000457764	
1.54602	-0.148926	0.000152588	
1.54602	-0.148315	-0.000152588	
1.54572	-0.148621	-0.000305176	
1.54816	-0.148621	0.000152588	
1.5509	-0.149231	0.000152588	
1.55121	-0.14801	0.000305176	
1.55182	-0.14801	0.000305176	
1.55121	-0.150452	0.000305176	
1.5506	-0.153503	0.000915527	
1.55029	-0.153503	0.0012207	
1.55273	-0.153198	0.0012207	
1.55548	-0.153198	-0.000152588	
1.55579	-0.152893	0.000457764	
1.55548	-0.153198	0.000610352	
1.55579	-0.153809	0.000152588	
1.55579	-0.153503	0	
1.55548	-0.153503	0	
1.55792	-0.153503	0.000457764	
1.55975	-0.153503	-0.000152588	
1.56036	-0.153198	0.000305176	
1.56036	-0.153503	0.000915527	
1.56036	-0.152893	0.000762939	
1.56128	-0.153198	0.00106812	
1.56067	-0.153198	0.000610352	
1.5625	-0.153198	0.000610352	
1.56464	-0.153198	0.000762939	
1.56555	-0.153503	0.000915527	
1.56586	-0.152588	0.000610352	
1.56555	-0.153809	-0.000152588	
1.56586	-0.153809	-0.000305176	
1.56555	-0.153809	0.000305176	
1.56494	-0.153198	0.000610352	
1.56769	-0.153503	0	
1.56982	-0.152893	0.000305176	
1.57013	-0.153503	0	
1.57074	-0.152893	0.000762939	
1.57013	-0.154724	0.000305176	
1.57043	-0.153198	0.000305176	
1.57043	-0.153198	0.000762939	
1.57013	-0.153503	0.000762939	
1.57288	-0.153503	0.000305176	
1.5744	-0.153809	0.000152588	
1.57501	-0.153198	-0.000152588	
1.57501	-0.153503	0.000305176	
1.57562	-0.153809	0	
1.57562	-0.153503	0	
1.57471	-0.153503	0.000152588	
1.57501	-0.153198	0.000457764	
1.57745	-0.153198	0.000915527	
1.57928	-0.151367	0.00152588	
1.57959	-0.148926	0.000457764	
1.5799	-0.14801	0	
1.58051	-0.148926	0.000762939	
1.5802	-0.148315	0.000762939	
1.5799	-0.148621	0.000610352	
1.5799	-0.148315	0.000305176	
1.5802	-0.148926	0.000152588	
1.58142	-0.14801	0.000457764	
1.58417	-0.148621	0.000152588	
1.58539	-0.148621	0.000152588	
1.58478	-0.14801	0.000457764	
1.58478	-0.14801	0.000762939	
1.58508	-0.148621	0.000915527	
1.58569	-0.148315	0.000915527	
1.58539	-0.148621	0.000762939	
1.58508	-0.148926	0.000762939	
1.58569	-0.14801	0.000305176	
1.58722	-0.148621	0.000610352	
1.58936	-0.148621	-0.000305176	
1.58966	-0.148926	-0.000610352	
1.58997	-0.148926	0	
1.59027	-0.148315	0.000610352	
1.58936	-0.148315	0.000305176	
1.58997	-0.14801	0.000152588	
1.58997	-0.148621	0.000457764	
1.59027	-0.148315	0.000610352	
1.59027	-0.148621	0.000457764	
1.58997	-0.148621	0.000610352	
1.59241	-0.148621	0.000305176	
1.59485	-0.148926	0.000457764	
1.59576	-0.148621	0.000305176	
1.59515	-0.148315	0.000457764	
1.59485	-0.148315	0.000305176	
1.59515	-0.148621	0.000152588	
1.59515	-0.148926	0	
1.59515	-0.148926	0	
1.59546	-0.148315	0.000152588	
1.59515	-0.147705	0.000152588	
1.59546	-0.149536	0.00106812	
1.59668	-0.148315	0.0012207	
1.59973	-0.148621	0.000762939	
1.60004	-0.148315	0.000152588	
1.60004	-0.147705	0.000915527	
1.59973	-0.148621	0.000762939	
1.60034	-0.148926	0.000762939	
1.59973	-0.148621	0.000305176	
1.60065	-0.148621	0.000305176	
1.60065	-0.148926	0.000610352	
1.60004	-0.14679	0.000305176	
1.59973	-0.144043	0.000305176	
1.60004	-0.143738	0.000305176	
1.60004	-0.142822	0.000762939	
1.60248	-0.144043	0.000762939	
1.60431	-0.143433	0.000610352	
1.60492	-0.144043	0.000610352	
1.60492	-0.143738	0.0012207	
1.60553	-0.143738	0.000152588	
1.60461	-0.143433	0.000610352	
1.60461	-0.143738	0	
1.60461	-0.143738	-0.000457764	
1.60522	-0.144043	0.000457764	
1.60522	-0.143738	0.000610352	
1.60522	-0.143127	0.000457764	
1.60522	-0.143738	0.000152588	
1.60492	-0.144043	0.000152588	
1.60431	-0.143433	0.000457764	
1.60492	-0.143433	0.000610352	
1.60675	-0.141296	0.000305176	
1.60919	-0.139465	0.000610352	
1.6095	-0.13916	0.000457764	
1.6098	-0.13855	0.000152588	
1.60889	-0.13916	0	
1.61011	-0.138855	-0.000305176	
1.6098	-0.13855	0.000305176	
1.61011	-0.139465	0.000152588	
1.61011	-0.138245	0.000457764	
1.6095	-0.139465	0.000152588	
1.6098	-0.138855	0.000305176	
1.61011	-0.13855	0.000915527	
1.6095	-0.137939	0.0012207	
1.61041	-0.136719	0.000610352	
1.61011	-0.134277	0.000305176	
1.61011	-0.133667	0.000610352	
1.61011	-0.133362	0.000610352	
1.61194	-0.133972	0.000457764	
1.61438	-0.133057	0.000305176	
1.61469	-0.133972	0.000305176	
1.6153	-0.133667	0.000610352	
1.61469	-0.133972	0.000457764	
1.6153	-0.133667	0.000457764	
1.6153	-0.131836	0.000457764	
1.61499	-0.13031	0.000610352	
1.61499	-0.129089	0.000915527	
1.6156	-0.129089	0.000610352	
1.61499	-0.128784	0.000762939	
1.61499	-0.129089	0.000762939	
1.6153	-0.129089	0.000457764	
1.6156	-0.128784	0.000610352	
1.61469	-0.128784	-0.000305176	
1.61438	-0.127258	-0.000152588	
1.61469	-0.124207	0.000305176	
1.61499	-0.123596	0.000457764	
1.61407	-0.123596	0	
1.6153	-0.123901	0	
1.61469	-0.123596	0.000305176	
1.61499	-0.12207	0.000762939	
1.61713	-0.119629	0.000762939	
1.61926	-0.119324	0.000915527	
1.61987	-0.119019	0.000305176	
1.61987	-0.119324	0.000762939	
1.61957	-0.118713	0.000457764	
1.61987	-0.119019	0.000305176	
1.62018	-0.117188	0	
1.61926	-0.115051	-0.000152588	
1.61987	-0.113525	0.000305176	
1.62048	-0.114136	-0.000152588	
1.61926	-0.114136	0.000305176	
1.61987	-0.11261	0	
1.61957	-0.109253	0.0012207	
1.61957	-0.109253	0.00137329	
1.61987	-0.108948	0.000762939	
1.61957	-0.109863	0.000610352	
1.61987	-0.109253	0.000915527	
1.62018	-0.107422	0.000915527	
1.61957	-0.10498	0.000610352	
1.62048	-0.10498	-0.000152588	
1.61987	-0.10437	0	
1.62018	-0.10437	0.000457764	
1.61987	-0.102234	0.000305176	
1.61957	-0.100403	0.000152588	
1.61957	-0.100098	0.000610352	
1.61896	-0.0997925	0.000762939	
1.62018	-0.0994873	0.000762939	
1.61987	-0.0976563	0.000762939	
1.61926	-0.0949097	0.000305176	
1.61987	-0.0946045	0.000915527	
1.61987	-0.0946045	0.000457764	
1.61987	-0.0921631	0.000457764	
1.6217	-0.0906372	-0.000305176	
1.62415	-0.0897217	-0.000457764	
1.62445	-0.090332	0.000305176	
1.62476	-0.0872803	0.000457764	
1.62506	-0.0860596	0.000610352	
1.62506	-0.0848389	0	
1.62506	-0.085144	0.000610352	
1.62537	-0.0820923	0.000457764	
1.62476	-0.0805664	0.000457764	
1.62445	-0.0796509	0.000457764	
1.62506	-0.0799561	0.000610352	
1.62537	-0.0775146	0.000762939	
1.62476	-0.0765991	0.000305176	
1.62506	-0.0750732	-0.000152588	
1.62506	-0.0744629	-0.000305176	
1.62506	-0.0732422	0.000305176	
1.62476	-0.0704956	0.000152588	
1.62476	-0.0701904	0.000152588	
1.62537	-0.067749	0.000305176	
1.62476	-0.0662231	0.000457764	
1.62445	-0.0650024	0.00137329	
1.62415	-0.0650024	0.00152588	
1.62445	-0.0631714	0.000305176	
1.62445	-0.06073	0.000305176	
1.62476	-0.0601196	0.000762939	
1.62537	-0.0579834	0.000762939	
1.62506	-0.0558472	0.000610352	
1.62476	-0.0549316	0.000152588	
1.62445	-0.0549316	0	
1.62506	-0.0527954	0.000152588	
1.62476	-0.0506592	0	
1.62476	-0.0506592	0.000152588	
1.62445	-0.0482178	0.000610352	
1.62445	-0.0463867	0.000915527	
1.62506	-0.0457764	0.000610352	
1.62445	-0.043335	0.000305176	
1.62445	-0.0411987	0.000915527	
1.62445	-0.0405884	0.000610352	
1.62445	-0.0384521	0.000762939	
1.62445	-0.0363159	0.000762939	
1.62476	-0.0360107	0	
1.62476	-0.0338745	-0.000457764	
1.62415	-0.0311279	0.000305176	
1.62506	-0.0308228	0.000457764	
1.62445	-0.0286865	0.000152588	
1.62476	-0.0265503	0	
1.62445	-0.0253296	0.000610352	
1.62506	-0.0238037	0.000610352	
1.62476	-0.0216675	0.000762939	
1.62476	-0.020752	0.000457764	
1.62445	-0.0189209	0.000457764	
1.62415	-0.0167847	0.000762939	
1.62476	-0.015564	-0.000152588	
1.62476	-0.0137329	0.000305176	
1.62506	-0.0112915	-0.000152588	
1.62445	-0.0088501	0	
1.62476	-0.00671387	0.000305176	
1.62506	-0.00671387	-0.000152588	
1.62445	-0.00366211	0.000457764	
1.62445	-0.00183105	0.000305176	
1.62476	-0.00183105	0.00106812	
1.62506	0.000305176	0.00137329	
1.62506	0.00244141	0.000610352	
1.62445	0.00274658	0.000610352	
1.62476	0.00518799	0.000305176	
1.62445	0.00732422	0.000610352	
1.62445	0.00976563	0.000610352	
1.62476	0.0125122	0.000152588	
1.62476	0.0131226	0.000152588	
1.62476	0.0146484	0.000610352	
1.62476	0.017395	0.000610352	
1.62476	0.0180054	0.000152588	
1.62476	0.0204468	0.000457764	
1.62476	0.022583	0.000610352	
1.62506	0.0250244	0.0012207	
1.62445	0.0271606	0.000305176	
1.62506	0.027771	0.000915527	
1.62476	0.0302124	0.000762939	
1.62445	0.0323486	0.000457764	
1.62445	0.0323486	0.000457764	
1.62415	0.0344849	-0.000305176	
1.62445	0.0372314	-0.000152588	
1.62476	0.0393677	0.000305176	
1.62476	0.0421143	0.000610352	
1.62476	0.0427246	0	
1.62506	0.0448608	0	
1.62445	0.0466919	0.000152588	
1.62445	0.0497437	0.000610352	
1.62476	0.0521851	0.000610352	
1.62445	0.0521851	0.000610352	
1.62506	0.0549316	0.000457764	
1.62445	0.0570679	0.000762939	
1.62445	0.0595093	0.000305176	
1.62476	0.0616455	0.000152588	
1.62445	0.062561	-0.000152588	
1.62537	0.0640869	0	
1.62506	0.0665283	0.000152588	
1.62476	0.0671387	-0.000152588	
1.62445	0.0695801	0.000305176	
1.62415	0.0708008	0.000152588	
1.62506	0.0750732	0.00106812	
1.62445	0.0765991	0.00137329	
1.62476	0.0778198	0.000305176	
1.62445	0.0793457	0.000457764	
1.62506	0.0802612	0.000457764	
1.62476	0.0830078	0.000610352	
1.62415	0.085144	0.000457764	
1.62506	0.0863647	0	
1.62292	0.0878906	0	
1.62018	0.0900269	0.000305176	
1.61957	0.0909424	0.000610352	
1.61926	0.0930786	-0.000152588	
1.61987	0.0952148	0.000305176	
1.61957	0.0979614	0.000457764	
1.61926	0.100403	0.00137329	
1.62018	0.100098	0.000610352	
1.61987	0.102844	0.00106812	
1.61957	0.105591	0.00106812	
1.62018	0.108032	0.000762939	
1.62018	0.109863	0.000152588	
1.61957	0.109863	0	
1.61896	0.112305	-0.000152588	
1.61926	0.115051	0.000610352	
1.61987	0.115662	0.000457764	
1.62018	0.117493	0.000305176	
1.61896	0.120239	0	
1.61987	0.12085	0.000152588	
1.61987	0.123291	0.000762939	
1.61957	0.125427	0.000457764	
1.61987	0.126953	0.000457764	
1.61926	0.1297	0.000457764	
1.61957	0.130615	0.000152588	
1.62018	0.132446	0.000610352	
1.61926	0.134888	0.000152588	
1.61957	0.135803	0	
1.61987	0.137024	0	
1.61926	0.13916	0.000305176	
1.61957	0.140076	0.000305176	
1.62018	0.141907	0.000457764	
1.61987	0.144653	0.000305176	
1.62018	0.145569	0.000915527	
1.61896	0.147705	0.00152588	
1.61957	0.148926	0.000762939	
1.61926	0.152283	0.000305176	
1.61957	0.154419	0.000915527	
1.61987	0.155334	0.000305176	
1.62018	0.156555	0.000457764	
1.61987	0.158691	0.000152588	
1.61835	0.159302	0.000152588	
1.61591	0.161743	0.000610352	
1.61499	0.163879	0.000152588	
1.61469	0.16449	0.000457764	
1.61499	0.166626	0.000610352	
1.61469	0.169373	0.000457764	
1.6153	0.169067	0.000762939	
1.61499	0.169678	0.000610352	
1.61469	0.171204	0.000762939	
1.61499	0.17334	0.000610352	
1.61499	0.174255	0.000152588	
1.61438	0.176697	0.000762939	
1.61499	0.178528	-0.000152588	
1.6156	0.179138	-0.000305176	
1.61499	0.18158	0.000457764	
1.61469	0.183716	0.000457764	
1.61499	0.184021	0	
1.61499	0.185547	-0.000305176	
1.61469	0.188599	0.000305176	
1.61469	0.189209	0.000762939	
1.61469	0.188904	0.000457764	
1.61469	0.191345	0.000457764	
1.61499	0.194092	0.000457764	
1.61469	0.194397	0.000457764	
1.61469	0.196228	0.000152588	
1.61499	0.198975	0	
1.61469	0.19928	-0.000152588	
1.61469	0.198975	-0.000152588	
1.61499	0.201416	0.000457764	
1.61255	0.203552	0.000152588	
1.61102	0.204468	0.000762939	
1.61041	0.204163	0.000457764	
1.6095	0.205994	0.00106812	
1.61011	0.20813	0.0012207	
1.6095	0.209045	0.000610352	
1.6098	0.210571	0.000610352	
1.6098	0.213013	0.000915527	
1.60919	0.213623	0.000305176	
1.61041	0.214539	0.000610352	
1.6095	0.215149	0.000305176	
1.61041	0.217285	0	
1.61041	0.218506	0.000915527	
1.6095	0.218201	0.000305176	
1.6098	0.218506	0.000152588	
1.61011	0.220337	0.000457764	
1.6098	0.222778	0.000610352	
1.6095	0.223389	0.00106812	
1.6098	0.223999	0.000152588	
1.6098	0.225525	0.000762939	
1.6098	0.227966	0.00106812	
1.6095	0.227966	0	
1.61011	0.228271	0.000610352	
1.61011	0.228577	0	
1.60919	0.230713	-0.000305176	
1.61011	0.232849	0.000305176	
1.60828	0.233459	0.000762939	
1.60583	0.233154	0.000152588	
1.60492	0.233765	0.000305176	
1.60553	0.235901	0.000305176	
1.60461	0.238037	0.000915527	
1.60492	0.238342	0.000915527	
1.60553	0.238647	0.000152588	
1.60492	0.238342	0.000762939	
1.60431	0.239563	0.000610352	
1.60461	0.24231	0.000457764	
1.60553	0.24353	-0.000152588	
1.60431	0.24292	-0.000610352	
1.60492	0.24292	0	
1.60461	0.242615	0.000152588	
1.60492	0.245361	0.000152588	
1.60492	0.247498	0.000457764	
1.60522	0.248108	0.000610352	
1.60461	0.248108	0.000762939	
1.60492	0.247803	0.00137329	
1.60431	0.248718	0.000762939	
1.60583	0.249329	0.000457764	
1.60492	0.25177	0.000457764	
1.60461	0.252991	0.000152588	
1.60461	0.253601	0.000915527	
1.60309	0.252686	0.000152588	
1.60004	0.252686	0	
1.59973	0.252686	0.000610352	
1.59973	0.252686	0	
1.60004	0.255127	0.000305176	
1.59973	0.256958	0.000457764	
1.60034	0.258179	0.000610352	
1.59943	0.257874	0.000762939	
1.59973	0.257568	0.000457764	
1.59943	0.257874	0.000610352	
1.60004	0.257568	0.000915527	
1.59973	0.257263	0.000305176	
1.60004	0.259705	0.000457764	
1.59973	0.262146	0.000457764	
1.60034	0.262756	-0.000305176	
1.59973	0.261841	0	
1.60004	0.263062	0.000915527	
1.60034	0.262451	-0.000152588	
1.60004	0.262756	0	
1.60004	0.262451	0.000305176	
1.59943	0.263062	0.000610352	
1.60004	0.262756	0.000610352	
1.59851	0.262451	0.000305176	
1.59607	0.263062	0.000305176	
1.59485	0.264587	0.000762939	
1.59515	0.266724	0.000457764	
1.59515	0.267639	0.000152588	
1.59515	0.267334	-0.000152588	
1.59424	0.267639	0.000152588	
1.59485	0.267639	0.000457764	
1.59515	0.267639	0.000457764	
1.59576	0.267029	0.000610352	
1.59515	0.267334	0.000305176	
1.59485	0.267944	0.000762939	
1.59515	0.267639	0.0012207	
1.59515	0.267944	0.000610352	
1.59546	0.267639	0.000305176	
1.59485	0.267334	0.00106812	
1.59454	0.267639	0.000152588	
1.59485	0.26825	0.000762939	
1.59515	0.267944	0.000305176	
1.59454	0.267944	0	
1.59485	0.267639	0.000457764	
1.59332	0.267639	0.000152588	
1.59119	0.267029	0.000610352	
1.58997	0.26825	0.000305176	
1.58997	0.267639	0.000610352	
1.58997	0.267334	0.000915527	
1.59027	0.267944	0.000762939	
1.59027	0.270081	0.000762939	
1.59027	0.272217	0.000762939	
1.58966	0.272827	0.000610352	
1.58997	0.272827	0.000457764	
1.59027	0.272522	0.000152588	
1.58997	0.272522	0	
1.58997	0.270386	0.000152588	
1.58966	0.268555	0.000457764	
1.59027	0.267334	-0.000305176	
1.59027	0.267639	0.000152588	
1.58936	0.267944	0	
1.58936	0.267029	0.000762939	
1.59027	0.267639	0.000610352	
1.58997	0.26825	0.000610352	
1.58813	0.267334	0.000457764	
1.58539	0.267639	0.000305176	
1.58508	0.267639	0.000457764	
1.58539	0.267334	0.000305176	
1.58478	0.267334	-0.000152588	
1.58508	0.267944	-0.000152588	
1.58539	0.267639	0.000762939	
1.58539	0.267944	-0.000152588	
1.58478	0.267944	0.000305176	
1.58508	0.267944	0.000457764	
1.58539	0.268555	0.000915527	
1.58569	0.267334	0.00152588	
1.58508	0.267334	0.000762939	
1.58539	0.267334	0.000610352	
1.58539	0.267334	0.000915527	
1.58508	0.267944	0.000305176	
1.58447	0.267944	0.00106812	
1.58539	0.267944	0	
1.58508	0.267334	0.000152588	
1.58508	0.266113	0.000305176	
1.58325	0.263977	0.000152588	
1.58081	0.262146	0.000457764	
1.58051	0.262756	0.000610352	
1.5802	0.263062	0.000610352	
1.5799	0.262756	0.000915527	
1.5799	0.263062	0.000762939	
1.5799	0.262451	0.000457764	
1.5802	0.263062	0.000610352	
1.5799	0.262756	0.000457764	
1.5799	0.262451	0.000915527	
1.5799	0.262451	-0.000152588	
1.5799	0.262756	-0.000152588	
1.58112	0.260925	0.000152588	
1.58051	0.258789	0.000762939	
1.5802	0.257874	0	
1.5799	0.257874	0	
1.5802	0.257568	0.000457764	
1.5802	0.257568	0.000915527	
1.5802	0.258179	0.000610352	
1.57806	0.258179	0.000305176	
1.57623	0.257568	0.000457764	
1.57501	0.258179	0.000762939	
1.57471	0.255737	0.000457764	
1.57532	0.253296	0.000305176	
1.57471	0.252686	-0.000457764	
1.57562	0.252686	0.000152588	
1.57501	0.252686	0.000457764	
1.57593	0.252991	0	
1.57501	0.252991	0.000305176	
1.57532	0.252686	0.000457764	
1.57532	0.25116	0.00106812	
1.57501	0.248718	0.00167847	
1.57562	0.248108	0.000915527	
1.57501	0.246887	0.000610352	
1.57562	0.247803	0.000762939	
1.57532	0.248108	0.000305176	
1.57593	0.247498	0.000762939	
1.57501	0.247498	0.000305176	
1.57379	0.246277	0	
1.57166	0.244141	0.000457764	
1.57074	0.243225	0.000610352	
1.57043	0.242615	0.000610352	
1.57104	0.243225	0.000305176	
1.57043	0.243225	0.000457764	
1.57043	0.24292	0.0012207	
1.57013	0.240784	0.000457764	
1.57043	0.238953	0.000457764	
1.57013	0.238647	0.000457764	
1.57013	0.238342	0.000457764	
1.57013	0.237732	0.000610352	
1.56982	0.237732	0.000305176	
1.57013	0.236206	-0.000305176	
1.57013	0.234375	0.000152588	
1.57074	0.23407	0.000762939	
1.57013	0.233765	0	
1.57013	0.232544	0.000152588	
1.57013	0.233765	0.000305176	
1.56891	0.231628	0.000915527	
1.56708	0.229187	0.000762939	
1.56586	0.227966	0.000305176	
1.56494	0.228882	0.000305176	
1.56555	0.229187	0.000762939	
1.56525	0.228271	0.000152588	
1.56555	0.22644	0.000152588	
1.56586	0.223999	-0.000152588	
1.56494	0.223694	0	
1.56525	0.223694	0.000457764	
1.56525	0.223999	0.000152588	
1.56555	0.222778	0.000457764	
1.56616	0.221863	0.000305176	
1.56525	0.219421	0.000915527	
1.56494	0.218811	0.00137329	
1.56525	0.219421	0.000457764	
1.56586	0.218506	0.000152588	
1.56464	0.216675	0.000762939	
1.56586	0.214539	0.000610352	
1.56342	0.213928	0.0012207	
1.56158	0.213623	0.000305176	
1.56067	0.213928	0.000152588	
1.56128	0.213013	0.000610352	
1.56097	0.211792	0.000457764	
1.56067	0.209351	0.000305176	
1.56067	0.208435	0.000610352	
1.56128	0.208435	0.000610352	
1.56067	0.208435	0.00152588	
1.56158	0.206909	0.000610352	
1.56158	0.204468	0.000762939	
1.56097	0.204163	0.000610352	
1.56067	0.204468	0.000152588	
1.56128	0.204163	0.000915527	
1.56097	0.201721	0	
1.56067	0.19989	0	
1.56097	0.199585	0.000305176	
1.56097	0.19928	0.000610352	
1.56128	0.198975	0.000762939	
1.55945	0.197144	0.000305176	
1.55609	0.194397	0	
1.5567	0.193787	0.000915527	
1.55579	0.194397	0.000762939	
1.55609	0.194702	0.000457764	
1.55609	0.192261	0	
1.55518	0.189819	0.000610352	
1.55609	0.189209	0.000305176	
1.55548	0.188599	0	
1.55548	0.189209	-0.000152588	
1.55609	0.187073	0.000152588	
1.55548	0.184937	0.000457764	
1.55579	0.184326	0.000305176	
1.55579	0.184326	0.000152588	
1.55609	0.18219	0	
1.55609	0.180664	0.000305176	
1.55548	0.179138	0.0012207	
1.55548	0.179443	0.000305176	
1.55548	0.179749	0.000762939	
1.55548	0.177002	0.00106812	
1.55396	0.174866	0.000610352	
1.55151	0.174561	0.000610352	
1.55121	0.174255	0.000152588	
1.5509	0.174255	0	
1.55029	0.172729	0.000457764	
1.55121	0.169983	0.000305176	
1.55121	0.169678	0.000610352	
1.55121	0.169373	0.000457764	
1.55121	0.169678	0.000762939	
1.5509	0.168152	0.00106812	
1.5509	0.165405	0.000762939	
1.5506	0.164795	0.000610352	
1.55121	0.164185	0.000610352	
1.55151	0.163269	0.000457764	
1.5509	0.159912	0.000457764	
1.5506	0.159302	-0.000305176	
1.55121	0.159302	-0.000610352	
1.54999	0.159607	0.000152588	
1.55121	0.157471	0.000457764	
1.5509	0.155945	0	
1.54938	0.155029	0.000152588	
1.54724	0.154419	0.000457764	
1.54663	0.155029	0.000762939	
1.54602	0.153503	0.000305176	
1.54602	0.151367	0.000762939	
1.54602	0.149841	0.000305176	
1.54541	0.150452	0.000457764	
1.54541	0.147705	0.000152588	
1.5451	0.145569	0.000305176	
1.54633	0.145264	0	
1.54633	0.145264	0	
1.54572	0.144653	0.000457764	
1.54633	0.142822	0.000305176	
1.54602	0.140991	0.000610352	
1.54602	0.140686	0.000305176	
1.54663	0.140076	0.000915527	
1.54572	0.140076	0.0012207	
1.54633	0.138245	0.000915527	
1.54602	0.135498	0.000305176	
1.54602	0.135193	0.000915527	
1.54633	0.135193	0.000610352	
1.54358	0.135193	0.000610352	
1.54175	0.132751	0.000152588	
1.54083	0.13031	0	
1.54144	0.1297	0.000762939	
1.54083	0.13031	0.000305176	
1.54053	0.13031	0.000305176	
1.54144	0.128784	0.000457764	
1.54053	0.126648	0.000762939	
1.54144	0.125732	0.0012207	
1.54114	0.125122	0.000610352	
1.54053	0.123901	0.000610352	
1.54083	0.121155	0.000915527	
1.54114	0.120239	0.000305176	
1.54053	0.12085	0.000457764	
1.54144	0.119934	0	
1.54083	0.119934	-0.000152588	
1.54083	0.118713	0.000152588	
1.54114	0.115967	0.000305176	
1.54083	0.115662	0.000152588	
1.54144	0.115356	0.000152588	
1.54175	0.115662	0	
1.53931	0.11322	0.000915527	
1.53717	0.111389	0.000610352	
1.53625	0.111694	0.000305176	
1.53564	0.110779	0.000610352	
1.53595	0.110779	0.000457764	
1.53625	0.108337	0.000762939	
1.53625	0.106506	0.000152588	
1.53656	0.106201	-0.000152588	
1.53595	0.105286	0.000305176	
1.53595	0.105896	0.000305176	
1.53687	0.103149	0.000152588	
1.53656	0.102234	0.000915527	
1.53656	0.101013	0.000305176	
1.53595	0.100708	0.000610352	
1.53595	0.101013	0.0012207	
1.53595	0.100098	0.000457764	
1.53625	0.0967407	0.000152588	
1.53595	0.0958252	0.000915527	
1.53625	0.0961304	0.000152588	
1.53595	0.0961304	0.000915527	
1.53534	0.0961304	0.000152588	
1.53564	0.093689	0	
1.53656	0.0918579	0.000915527	
1.53442	0.0906372	0.000762939	
1.53168	0.0909424	0.000610352	
1.53107	0.0912476	0.000457764	
1.53046	0.0906372	0.000305176	
1.53076	0.0894165	0.00137329	
1.53168	0.0860596	0.000457764	
1.53137	0.0854492	0.000305176	
1.53168	0.0866699	0.000762939	
1.53137	0.0863647	0.000457764	
1.53046	0.0839233	0.000762939	
1.53107	0.0811768	-0.000152588	
1.53107	0.0814819	0	
1.53137	0.0817871	0.000152588	
1.53137	0.0811768	0.000457764	
1.53107	0.0814819	0.000305176	
1.53076	0.0796509	0.000152588	
1.52985	0.078125	0.000305176	
1.53198	0.078125	0.000915527	
1.53168	0.0772095	0.000457764	
1.53168	0.0769043	0.000152588	
1.53076	0.0765991	0.000152588	
1.53137	0.0772095	0.000305176	
1.53137	0.0753784	0.000457764	
1.52863	0.0732422	0.000152588	
1.52679	0.0723267	0	
1.52649	0.0720215	-0.000152588	
1.5271	0.0723267	0.000457764	
1.52679	0.0726318	0.000152588	
1.52618	0.0698853	0.000305176	
1.52588	0.0668335	0.000457764	
1.52679	0.067749	0.00106812	
1.52618	0.0665283	0.0012207	
1.52679	0.0671387	0.000762939	
1.52618	0.0674438	0.000457764	
1.52618	0.067749	0.0012207	
1.52588	0.0653076	0.000762939	
1.52588	0.0631714	0.000915527	
1.52618	0.0622559	0	
1.52679	0.0622559	0	
1.52557	0.0622559	0.000762939	
1.52618	0.062561	0.000305176	
1.52649	0.0622559	0.000457764	
1.52557	0.0604248	0.000305176	
1.52649	0.0585938	0.000457764	
1.52588	0.057373	0.00106812	
1.52679	0.0570679	0.000457764	
1.52649	0.0576782	0.000762939	
1.52649	0.0576782	0.000915527	
1.52405	0.0570679	0.000305176	
1.52191	0.055542	0.000762939	
1.5213	0.0531006	0	
1.5213	0.0524902	-0.000305176	
1.5213	0.0521851	0.000305176	
1.521	0.0527954	0.000610352	
1.5213	0.0527954	0	
1.521	0.0527954	0.000305176	
1.521	0.0524902	0.000610352	
1.52191	0.050354	0.000762939	
1.5213	0.0482178	0.000610352	
1.52161	0.0482178	0.000915527	
1.5213	0.0479126	0.000915527	
1.521	0.0482178	0.000305176	
1.5213	0.0473022	0.000152588	
1.5213	0.0479126	0.000305176	
1.5213	0.0476074	-0.000305176	
1.521	0.045166	0.000305176	
1.521	0.043335	0.000457764	
1.521	0.0427246	0	
1.5213	0.0427246	0.000610352	
1.5213	0.0436401	0.000610352	
1.5213	0.0430298	0.000457764	
1.52069	0.043335	0.000915527	
1.5213	0.0427246	0.00106812	
1.5213	0.0427246	0.000762939	
1.52191	0.0408936	0.000762939	
1.51978	0.0384521	0	
1.51672	0.0378418	0.000762939	
1.51611	0.0375366	0.000152588	
1.51611	0.0384521	0.000152588	
