model_ppg1.acq
0.5 msec/sample
3 channels
RSP, X, RSPEC-R
Volts
PPG, X, PPGED-R
Volts
ECG, Y, RSPEC-R
mV
CH1	CH2	CH13	
242750	242750	242750	
6.34979	-0.0161743	0.000915527	
6.3501	-0.017395	0.00106812	
6.34918	-0.0198364	0.000762939	
6.34949	-0.0204468	0.0012207	
6.3501	-0.0204468	0.000305176	
6.34979	-0.0210571	0.000762939	
6.34979	-0.020752	-0.000152588	
6.3501	-0.0213623	-0.000305176	
6.34979	-0.020752	0	
6.34949	-0.020752	0.000305176	
6.34979	-0.0210571	-0.000152588	
6.34979	-0.0216675	0.000305176	
6.34979	-0.0210571	0.000305176	
6.34949	-0.0210571	0.000915527	
6.3501	-0.0210571	0.000305176	
6.35315	-0.0213623	0.000305176	
6.35345	-0.020752	0.000457764	
6.35498	-0.020752	0.000610352	
6.35468	-0.022583	0.000152588	
6.35498	-0.0253296	-0.000152588	
6.35406	-0.0262451	-0.000457764	
6.35437	-0.0259399	0.000305176	
6.35406	-0.0259399	0.000457764	
6.35437	-0.0259399	0.000457764	
6.35406	-0.0262451	0	
6.35406	-0.0250244	0.000152588	
6.3559	-0.0259399	0.00137329	
6.35895	-0.0259399	0.0012207	
6.35986	-0.0259399	0.000610352	
6.35956	-0.0262451	0.000152588	
6.35956	-0.0253296	0.000915527	
6.35925	-0.0259399	0.000762939	
6.35925	-0.0259399	0.000915527	
6.35895	-0.0256348	0.000152588	
6.35986	-0.0268555	0	
6.35956	-0.0296021	0.000305176	
6.35864	-0.0308228	0.000762939	
6.35956	-0.0311279	-0.000152588	
6.35925	-0.0311279	0.000762939	
6.36047	-0.0299072	0.000762939	
6.36322	-0.0311279	0.000915527	
6.36383	-0.0305176	0.000457764	
6.36414	-0.0311279	0.000457764	
6.36475	-0.0311279	0.000915527	
6.36475	-0.0308228	0.000457764	
6.36475	-0.0302124	0.000762939	
6.36444	-0.0305176	0	
6.36475	-0.0305176	-0.000762939	
6.36444	-0.0308228	0.000305176	
6.36414	-0.0299072	0.000457764	
6.36414	-0.0311279	-0.000152588	
6.36475	-0.0323486	-0.000152588	
6.36444	-0.0350952	0.000305176	
6.36414	-0.0357056	0.000915527	
6.36566	-0.0357056	0.000610352	
6.3681	-0.0357056	0.000152588	
6.36902	-0.0360107	0.000305176	
6.36963	-0.0354004	0.000457764	
6.36993	-0.0360107	0.000305176	
6.36902	-0.0360107	0.000152588	
6.36902	-0.0360107	-0.000152588	
6.36902	-0.0363159	0	
6.36963	-0.0354004	0	
6.36963	-0.0357056	0.000152588	
6.36871	-0.0357056	0.000152588	
6.36902	-0.0357056	0.000305176	
6.36963	-0.0354004	0.00106812	
6.36902	-0.0363159	0.0012207	
6.36932	-0.0357056	0.000457764	
6.36963	-0.0375366	0.000762939	
6.37115	-0.039978	0.000152588	
6.37329	-0.0405884	0.000305176	
6.37451	-0.0405884	0.000457764	
6.3736	-0.0411987	-0.000152588	
6.37482	-0.0408936	0	
6.3739	-0.0405884	0.000457764	
6.3739	-0.0405884	0.000762939	
6.37451	-0.0405884	0.000152588	
6.37451	-0.0402832	0.000762939	
6.37451	-0.039978	0.000457764	
6.37482	-0.0408936	0.000762939	
6.3739	-0.0405884	0.000610352	
6.3739	-0.0402832	0.000305176	
6.37421	-0.0402832	0.000457764	
6.37451	-0.0402832	0.000457764	
6.37451	-0.0402832	0.000610352	
6.37634	-0.0408936	0.000152588	
6.37817	-0.0408936	-0.000305176	
6.37909	-0.0408936	0.000152588	
6.3797	-0.0424194	0.000305176	
6.37878	-0.0448608	0.000152588	
6.37909	-0.0457764	0	
6.37909	-0.0460815	0.000305176	
6.3797	-0.045166	0.000915527	
6.37878	-0.0448608	0.000457764	
6.3797	-0.0454712	0.000457764	
6.37939	-0.045166	0.000152588	
6.37909	-0.0454712	0.000610352	
6.37909	-0.0454712	0.000457764	
6.37909	-0.0454712	0	
6.37909	-0.0454712	-0.000610352	
6.37939	-0.0457764	0.000152588	
6.37909	-0.0457764	0.000152588	
6.38031	-0.0454712	-0.000305176	
6.3797	-0.045166	0.000152588	
6.38123	-0.0454712	0.000305176	
6.38367	-0.045166	0.0012207	
6.38397	-0.0463867	0.00106812	
6.38458	-0.0454712	0.000610352	
6.38428	-0.0460815	0.000610352	
6.38489	-0.0460815	0.000457764	
6.38428	-0.045166	0.000762939	
6.38428	-0.045166	0.000762939	
6.38458	-0.0454712	-0.000152588	
6.38489	-0.0454712	0.000305176	
6.38397	-0.045166	0.000457764	
6.38397	-0.0454712	0.000457764	
6.38458	-0.045166	0.000305176	
6.38367	-0.045166	0.000610352	
6.38428	-0.045166	0.000915527	
6.38458	-0.0457764	0.000915527	
6.3855	-0.0448608	0.000762939	
6.38855	-0.0457764	0.000762939	
6.38855	-0.0457764	0.000610352	
6.38947	-0.0463867	0.000915527	
6.38947	-0.045166	0.000610352	
6.38916	-0.045166	-0.000152588	
6.38916	-0.0454712	0	
6.38916	-0.0448608	0.000305176	
6.38947	-0.0460815	0	
6.38947	-0.0457764	0.000152588	
6.38977	-0.0457764	0	
6.38977	-0.0454712	0.000305176	
6.38947	-0.0457764	0.000762939	
6.38947	-0.045166	0.000610352	
6.38947	-0.045166	0.000457764	
6.38947	-0.0457764	0.000305176	
6.38916	-0.0454712	0.000457764	
6.39069	-0.0457764	0	
6.39343	-0.0454712	0.000152588	
6.39374	-0.0460815	-0.000457764	
6.39404	-0.0460815	0.000457764	
6.39435	-0.045166	0.000152588	
6.39404	-0.0457764	-0.000152588	
6.39435	-0.0457764	0.000152588	
6.39435	-0.0454712	0.000610352	
6.39435	-0.0457764	0.000915527	
6.39343	-0.045166	0.00152588	
6.39435	-0.0457764	0.000457764	
6.39404	-0.0454712	0.000305176	
6.39404	-0.0457764	0.000610352	
6.39404	-0.0457764	0.00106812	
6.39496	-0.0454712	0.000610352	
6.39587	-0.0454712	0.000152588	
6.39801	-0.0457764	0.000457764	
6.39893	-0.0454712	0.000762939	
6.39923	-0.0457764	0.000762939	
6.39893	-0.0454712	0.000457764	
6.39893	-0.0460815	0.000610352	
6.39832	-0.0457764	0.000762939	
6.39954	-0.0457764	0.000915527	
6.39923	-0.0454712	0.000762939	
6.39923	-0.0436401	0.000610352	
6.39954	-0.0405884	0.000610352	
6.39893	-0.0405884	0.000305176	
6.39923	-0.0408936	0.000610352	
6.39801	-0.0402832	-0.000457764	
6.39923	-0.0405884	-0.000305176	
6.39862	-0.0411987	0.000305176	
6.40045	-0.0408936	0.000152588	
6.4035	-0.0408936	0	
6.40442	-0.0402832	0.000305176	
6.40411	-0.0405884	0.000305176	
6.40442	-0.0408936	0.000457764	
6.40381	-0.0405884	0.000610352	
6.4032	-0.0387573	0.000152588	
6.4035	-0.0369263	0.000457764	
6.4035	-0.0354004	0.000915527	
6.40411	-0.0360107	0.000305176	
6.40381	-0.0354004	-0.000457764	
6.40411	-0.0357056	-0.000152588	
6.4035	-0.0357056	0.000152588	
6.40442	-0.0354004	-0.000152588	
6.40442	-0.0357056	0	
6.40503	-0.0357056	0.000305176	
6.40808	-0.0354004	0.000305176	
6.40869	-0.0341797	0.00137329	
6.409	-0.0311279	0.00137329	
6.40869	-0.0305176	0.000762939	
6.409	-0.0308228	0.000152588	
6.40869	-0.0311279	0.000762939	
6.409	-0.0308228	0.000610352	
6.4093	-0.0311279	0.000762939	
6.40869	-0.0314331	0.000457764	
6.409	-0.0289917	0.000152588	
6.409	-0.0271606	0.000610352	
6.40869	-0.0259399	0.000305176	
6.4093	-0.0259399	0	
6.409	-0.0256348	0.000915527	
6.41052	-0.0262451	0.00106812	
6.41296	-0.0262451	0.000915527	
6.41357	-0.0250244	0.000762939	
6.41388	-0.0219727	0.000915527	
6.41388	-0.0210571	0.000762939	
6.41418	-0.0210571	0.000610352	
6.41357	-0.0204468	0.000457764	
6.41418	-0.0210571	-0.000305176	
6.41388	-0.0213623	-0.000305176	
6.41327	-0.0192261	0.000610352	
6.41388	-0.0170898	0.000305176	
6.41418	-0.0161743	0	
6.41388	-0.0158691	0.000457764	
6.41388	-0.0164795	0.000457764	
6.41388	-0.0158691	0.000915527	
6.41541	-0.0143433	0.000457764	
6.41815	-0.0119019	0.000457764	
6.41876	-0.0112915	0.000457764	
6.41937	-0.0106812	0.000152588	
6.41876	-0.0109863	0	
6.41907	-0.0112915	0.000152588	
6.41785	-0.0100708	-0.000305176	
6.41968	-0.00732422	0.000457764	
6.41876	-0.00671387	-0.000152588	
6.41815	-0.00610352	0.000152588	
6.41876	-0.00579834	0.000152588	
6.41876	-0.00427246	0.000305176	
6.41846	-0.00244141	0.00106812	
6.41937	-0.0012207	0.0012207	
6.41846	-0.000610352	0.000457764	
6.42059	-0.00183105	0.000305176	
6.42273	0.000305176	0.000762939	
6.42334	0.00213623	0.000457764	
6.42365	0.00305176	0.000610352	
6.42365	0.00305176	0	
6.42303	0.00335693	0	
6.42426	0.00518799	0.000610352	
6.42365	0.00762939	0.000610352	
6.42395	0.00823975	0.000152588	
6.42365	0.00823975	0.000762939	
6.42395	0.00762939	0.000610352	
6.42334	0.010376	0.000762939	
6.42365	0.0119019	0.000915527	
6.42426	0.0131226	0.000762939	
6.42395	0.0137329	0.000762939	
6.42548	0.0128174	0.000610352	
6.42792	0.0140381	0.000457764	
6.42853	0.017395	-0.000152588	
6.42853	0.0183105	-0.000152588	
6.42944	0.0183105	0.000305176	
6.42883	0.0195313	0.000305176	
6.42822	0.0219727	0.000305176	
6.42853	0.022583	0.000915527	
6.42822	0.0222778	0.000152588	
6.42822	0.0250244	0.000610352	
6.42853	0.0271606	0.000915527	
6.42853	0.027771	0.000305176	
6.42975	0.027771	0.000610352	
6.4328	0.0283813	0.000610352	
6.43311	0.0292969	0.000152588	
6.43372	0.0317383	0	
6.43372	0.0332642	-0.000152588	
6.43402	0.032959	0.000457764	
6.43341	0.0341797	0	
6.43311	0.0363159	0.000152588	
6.43341	0.0375366	0	
6.43372	0.0372314	0.000152588	
6.43372	0.0384521	0.000915527	
6.43372	0.0418091	0.00137329	
6.43402	0.0424194	0.000762939	
6.43463	0.0418091	0	
6.43799	0.0439453	0.000610352	
6.43829	0.0463867	0.000305176	
6.4386	0.0476074	0.000457764	
6.4389	0.0473022	0.000152588	
6.43829	0.0482178	0.000152588	
6.4386	0.0518799	0.000305176	
6.43829	0.0527954	0.000305176	
6.43829	0.0524902	0.000152588	
6.4389	0.0537109	0.000762939	
6.43829	0.0567627	0.000762939	
6.4386	0.0576782	0.000762939	
6.43829	0.0585938	0.000762939	
6.43829	0.0610352	0.000457764	
6.4389	0.0622559	0.00106812	
6.44012	0.0622559	0.000915527	
6.44257	0.0640869	0.000305176	
6.44318	0.065918	-0.000152588	
6.44318	0.0668335	-0.000457764	
6.44379	0.0680542	0.000152588	
6.44318	0.0689697	0.000915527	
6.44318	0.0714111	0	
6.44348	0.0717163	0.000152588	
6.44409	0.0732422	0.000152588	
6.44348	0.0744629	0.000457764	
6.44318	0.0762939	0.000305176	
6.44348	0.0772095	0.000305176	
6.44409	0.0772095	0.000457764	
6.44318	0.0784302	0.000457764	
6.4447	0.0802612	0.000305176	
6.44775	0.0802612	-0.000457764	
6.44867	0.0805664	-0.000152588	
6.44867	0.0823975	0.000305176	
6.44836	0.0854492	0.000305176	
6.44806	0.0857544	0	
6.44867	0.0878906	0	
6.44806	0.0909424	0.000457764	
6.44775	0.0912476	0.00106812	
6.44806	0.0912476	0.00152588	
6.44836	0.0927734	0.000610352	
6.44836	0.0949097	0.000152588	
6.44836	0.0961304	0.000457764	
6.44928	0.0961304	0.000762939	
6.45264	0.0979614	0.000457764	
6.45325	0.0997925	0	
6.45325	0.100403	0.000152588	
6.45355	0.101013	0.000152588	
6.45325	0.101929	0.000457764	
6.45325	0.104675	0	
6.45294	0.105286	0.000457764	
6.45294	0.105591	0.000915527	
6.45355	0.107422	0.000610352	
6.45294	0.109863	0.000610352	
6.45294	0.110779	0.000457764	
6.45355	0.110168	0.000762939	
6.45264	0.112915	0.000457764	
6.45508	0.114746	0.000610352	
6.45752	0.115356	-0.000305176	
6.45782	0.115662	-0.000457764	
6.45844	0.116272	0.000305176	
6.45844	0.120239	0.000610352	
6.45844	0.12085	-0.000305176	
6.45813	0.119934	0.000457764	
6.45874	0.12146	0.000305176	
6.45844	0.125427	0.000610352	
6.45782	0.125122	0.000915527	
6.45844	0.125427	0.000305176	
6.45813	0.127258	0.000152588	
6.45874	0.129089	0.000610352	
6.45905	0.1297	0.000305176	
6.46179	0.130005	-0.000152588	
6.46301	0.131531	0	
6.46301	0.135193	0	
6.46393	0.134888	0.000305176	
6.46393	0.135193	0	
6.46332	0.137024	0.000457764	
6.46332	0.13855	0.000152588	
6.46362	0.139771	0.00137329	
6.46332	0.140076	0.00106812	
6.46271	0.141907	0.00106812	
6.46362	0.144043	0.000305176	
6.46332	0.144958	0.000610352	
6.46454	0.145264	0.000762939	
6.46637	0.144958	0.000457764	
6.46759	0.145874	0	
6.4682	0.148926	0.000457764	
6.4679	0.149536	0.000152588	
6.4682	0.149841	0.000457764	
6.4679	0.151062	0.000152588	
6.46851	0.154114	0.000305176	
6.46881	0.154419	0.000915527	
6.4682	0.15564	0.000915527	
6.4679	0.154724	0.000610352	
6.46851	0.15625	0.00106812	
6.46912	0.158997	0.000762939	
6.47186	0.159607	0.000610352	
6.47278	0.159607	0.000152588	
6.47278	0.159912	-0.000305176	
6.47339	0.161438	-0.000762939	
6.47308	0.163574	0.000152588	
6.47369	0.164185	0.000762939	
6.47339	0.16449	-0.000152588	
6.47308	0.166016	0.000305176	
6.47339	0.168457	0.000305176	
6.47339	0.169983	0.000915527	
6.47308	0.169373	0.000762939	
6.47339	0.169067	0.000305176	
6.47461	0.168762	0.000152588	
6.47644	0.171204	0.000305176	
6.47736	0.173645	-0.000152588	
6.47827	0.173645	0	
6.47766	0.174561	0	
6.47858	0.174561	0	
6.47766	0.175781	-0.000152588	
6.47766	0.178223	0	
6.47797	0.179138	0.000457764	
6.47827	0.178833	0.000305176	
6.47827	0.179443	0.000915527	
6.47797	0.180969	0.00152588	
6.47888	0.183105	0.000305176	
6.48224	0.183411	0.000305176	
6.48224	0.183716	0.000305176	
6.48315	0.183716	0.00106812	
6.48315	0.184631	0.000457764	
6.48285	0.185242	0.000305176	
6.48315	0.187988	-0.000152588	
6.48193	0.188904	0.000457764	
6.48285	0.188904	0.000457764	
6.48315	0.188904	0	
6.48285	0.189209	0.000762939	
6.48346	0.19104	0.000915527	
6.48224	0.191956	0.000762939	
6.48438	0.193481	0.00106812	
6.48682	0.194092	0.000457764	
6.48743	0.194397	0.000762939	
6.48834	0.194397	0.000915527	
6.48712	0.194092	0.000152588	
6.48773	0.195313	-0.000610352	
6.48773	0.198364	-0.000457764	
6.48773	0.198975	0.000152588	
6.48743	0.198975	0.000610352	
6.48712	0.198364	-0.000152588	
6.48743	0.198669	0.000152588	
6.48804	0.198975	0.000610352	
6.48895	0.2005	0.000915527	
6.4917	0.202942	0.000762939	
6.49261	0.203857	0.000152588	
6.49353	0.204163	0.000152588	
6.49292	0.203552	0.000610352	
6.49292	0.203552	0	
6.49292	0.204163	-0.000152588	
6.49261	0.203857	0	
6.49261	0.205383	0	
6.49261	0.20752	0.000610352	
6.49292	0.208435	0	
6.49353	0.20874	0	
6.49658	0.20874	0	
6.49719	0.209045	0.000915527	
6.4975	0.20874	0.00152588	
6.49719	0.20813	0.000762939	
6.4978	0.20874	0.000915527	
6.4975	0.210266	0.000610352	
6.49719	0.212708	0.000915527	
6.49689	0.213928	0.000305176	
6.49719	0.214233	0.000152588	
6.4975	0.213013	0.000305176	
6.4975	0.213318	0.000457764	
6.49902	0.213623	0.000610352	
6.50116	0.214233	0	
6.50177	0.213928	0.000762939	
6.50299	0.213318	0.000457764	
6.50269	0.213928	0.000457764	
6.50238	0.215454	0.000762939	
6.50238	0.21759	0.000457764	
6.50269	0.21759	0.000457764	
6.50269	0.219116	0.000305176	
6.50269	0.218506	0.000305176	
6.50238	0.218811	-0.000610352	
6.50238	0.217896	-0.000457764	
6.5036	0.218201	0.000457764	
6.50665	0.218811	0.000457764	
6.50726	0.218201	-0.000152588	
6.50818	0.218506	0.000610352	
6.50787	0.218811	0.000915527	
6.50757	0.218811	0.000915527	
6.50787	0.218506	0.000610352	
6.50696	0.219727	0.000152588	
6.50757	0.222778	0.000457764	
6.50726	0.223999	0.0012207	
6.50818	0.223694	0.000152588	
6.50879	0.223083	0	
6.51093	0.223083	0	
6.51245	0.223389	-0.000152588	
6.51306	0.223083	0	
6.51276	0.222473	0.000152588	
6.51184	0.223389	0.000305176	
6.51245	0.223389	0.000762939	
6.51245	0.223083	0.000762939	
6.51276	0.222778	0.00137329	
6.51215	0.223083	0.000305176	
6.51215	0.223389	0.000915527	
6.51367	0.223694	0.000610352	
6.51611	0.223389	0.000457764	
6.51703	0.223999	0.000457764	
6.51703	0.223083	0	
6.51733	0.223389	0.000152588	
6.51794	0.223694	0.000305176	
6.51764	0.223389	0.000610352	
6.51703	0.223083	0	
6.51794	0.223694	0.000762939	
6.51733	0.223389	0.000915527	
6.51764	0.223389	0.000762939	
6.51855	0.223694	0.000610352	
6.52161	0.223694	0.000762939	
6.52252	0.223389	0.000305176	
6.52191	0.223694	0.000915527	
6.52283	0.223083	0.000457764	
6.52191	0.222778	-0.000305176	
6.52252	0.223083	-0.000762939	
6.52161	0.223389	0.000152588	
6.52283	0.223389	0.000152588	
6.52252	0.223389	-0.000152588	
6.52191	0.223083	0	
6.52374	0.223389	0.000762939	
6.52618	0.223389	0.000762939	
6.5271	0.223389	0.000457764	
6.5274	0.223083	0.000305176	
6.5271	0.223999	0.000457764	
6.5274	0.223389	0.000915527	
6.5274	0.223389	0.000152588	
6.52771	0.223389	-0.000152588	
6.52649	0.223389	-0.000152588	
6.5271	0.223999	0.000305176	
6.5274	0.223389	0.000152588	
6.52893	0.223694	-0.000152588	
6.53107	0.223389	0	
6.53229	0.223083	0.000305176	
6.53259	0.223389	0.00106812	
6.53259	0.223694	0.00137329	
6.53198	0.223389	0.000305176	
6.5329	0.223083	0.000762939	
6.53229	0.223694	0.000762939	
6.53229	0.221558	0.000762939	
6.53198	0.220337	0.000305176	
6.53198	0.218506	0	
6.53351	0.218201	-0.000152588	
6.53595	0.218811	0.000610352	
6.53687	0.218201	0.000762939	
6.53748	0.218506	0.000152588	
6.53748	0.219727	0.000762939	
6.53687	0.217896	0.00106812	
6.53687	0.219116	0.000457764	
6.53717	0.218506	0.000915527	
6.53717	0.218201	0.000610352	
6.53778	0.218201	0.000762939	
6.53839	0.219421	0.00106812	
6.54053	0.218201	0.000305176	
6.54205	0.21698	0	
6.54297	0.214844	-0.000762939	
6.54205	0.213623	0.000152588	
6.54266	0.214233	0.000305176	
6.54297	0.213623	0	
6.54205	0.213318	0.000610352	
6.54175	0.213318	0.000610352	
6.54205	0.213928	0.000762939	
6.54205	0.213623	0.000610352	
6.54449	0.213318	0.000152588	
6.54663	0.213013	0.000457764	
6.54663	0.212402	0.000762939	
6.54694	0.209961	0.000305176	
6.54694	0.209045	0	
6.54785	0.209045	-0.000152588	
6.54724	0.20874	0	
6.54724	0.20874	0.000152588	
6.54633	0.20874	0	
6.54785	0.20813	0.000305176	
6.54663	0.209045	0.000457764	
6.54663	0.209045	0.000915527	
6.54663	0.207214	0.00137329	
6.54694	0.205078	0.000915527	
6.54846	0.203857	0	
6.5509	0.203552	0.000915527	
6.55182	0.203857	0.000762939	
6.55182	0.203857	0.000305176	
6.55182	0.204468	0.000305176	
6.55182	0.203857	0.000305176	
6.55182	0.203857	0.000610352	
6.55212	0.202026	0.000457764	
6.55243	0.200195	0.000457764	
6.55243	0.199585	0.000610352	
6.55334	0.198975	0.000610352	
6.55579	0.198975	0.000762939	
6.5567	0.19928	0.000152588	
6.55701	0.198669	0.000762939	
6.55762	0.19928	0.000762939	
6.55701	0.197449	0.000305176	
6.55609	0.194397	0.000305176	
6.55731	0.194397	-0.000305176	
6.5564	0.194397	-0.000305176	
6.55792	0.194092	0.000152588	
6.55853	0.194092	0.000305176	
6.56128	0.194397	0	
6.56189	0.192566	0.000457764	
6.56219	0.190125	0.000152588	
6.56189	0.188904	0.000762939	
6.56219	0.189209	0.000457764	
6.56189	0.188904	0.000152588	
6.56158	0.189209	0.000610352	
6.56189	0.189209	0.000762939	
6.56067	0.187683	0.000152588	
6.56311	0.185547	-0.000152588	
6.56616	0.183716	0.000305176	
6.56708	0.183716	0.000305176	
6.56647	0.184326	-0.000152588	
6.56647	0.184021	0	
6.56677	0.184326	0.000305176	
6.56677	0.182495	0	
6.56677	0.180359	0.000915527	
6.56677	0.179443	0.00137329	
6.56708	0.180359	0.000762939	
6.57043	0.179443	0.000610352	
6.57135	0.178528	0.00106812	
6.57135	0.179138	0.000762939	
6.57166	0.177612	0.000610352	
6.57135	0.176086	0.000305176	
6.57135	0.174255	0.000152588	
6.57166	0.174866	0.000610352	
6.57196	0.17395	0.000152588	
6.57166	0.174255	0	
6.57288	0.173035	0.000457764	
6.57562	0.170593	0.000610352	
6.57654	0.169373	0.000610352	
6.57684	0.169678	0.000610352	
6.57654	0.169373	0.000915527	
6.57715	0.169678	0.000457764	
6.57715	0.168152	0.000762939	
6.57654	0.165405	0.000610352	
6.57623	0.16449	0	
6.57623	0.16449	-0.000457764	
6.57837	0.164185	0.000152588	
6.58081	0.16449	0.000457764	
6.58173	0.164185	-0.000152588	
6.58142	0.162964	0.000305176	
6.58112	0.160522	0.000762939	
6.58142	0.159607	0.000915527	
6.58142	0.159302	0.000915527	
6.58173	0.159302	0.000152588	
6.58203	0.159912	0.000457764	
6.58325	0.158691	0.000762939	
6.58539	0.155945	0.000610352	
6.58691	0.155029	-0.000152588	
6.5863	0.155029	0	
6.5863	0.154419	0.000305176	
6.58691	0.154419	-0.000152588	
6.58691	0.153503	0	
6.58691	0.150757	0.000152588	
6.586	0.149841	0.000457764	
6.58813	0.149841	0.0012207	
6.59058	0.150452	0.00137329	
6.5918	0.149841	0.000915527	
6.59088	0.148926	0.000152588	
6.5918	0.145874	0.000610352	
6.5918	0.145264	0.000457764	
6.59119	0.145264	0.000305176	
6.59088	0.145569	0.000305176	
6.5918	0.144958	0	
6.59119	0.143738	0.000457764	
6.5921	0.140686	0.000305176	
6.59546	0.140381	0	
6.59668	0.139771	0.000305176	
6.59668	0.140686	0.00137329	
6.59546	0.140686	0.000915527	
6.59668	0.137939	0.000762939	
6.59698	0.136108	0.000610352	
6.59698	0.134583	0.000305176	
6.59668	0.135193	0.000610352	
6.5979	0.136108	0.000152588	
6.60004	0.135193	-0.000305176	
6.60095	0.133667	-0.000457764	
6.60187	0.131226	0	
6.60095	0.13031	0.000610352	
6.60126	0.13031	0	
6.60095	0.13092	0.000762939	
6.60187	0.130005	0.000610352	
6.60126	0.128784	0.000457764	
6.60248	0.125427	0.000915527	
6.60492	0.124817	0.000152588	
6.60645	0.125427	0.000457764	
6.60645	0.125732	0.000610352	
6.60645	0.125427	0.000152588	
6.60583	0.126038	-0.000152588	
6.60583	0.124207	0.000152588	
6.60614	0.12146	0.000152588	
6.60645	0.12085	0.000152588	
6.60706	0.120544	0	
6.61011	0.120544	-0.000152588	
6.61041	0.121155	0.000762939	
6.61133	0.119629	0.0012207	
6.61072	0.116272	0.00106812	
6.61133	0.115967	0.000610352	
6.61163	0.115662	0.000457764	
6.61072	0.115051	0.000762939	
6.61163	0.115662	0.000915527	
6.61285	0.114136	0.000457764	
6.6156	0.110779	0.000152588	
6.61652	0.110779	0.000152588	
6.61652	0.110474	0.000762939	
6.61621	0.110474	0.000152588	
6.61652	0.110779	0.000152588	
6.6156	0.110779	0.000457764	
6.61591	0.109253	0.00106812	
6.61774	0.106506	0.000457764	
6.61987	0.106201	0.000915527	
6.6214	0.105896	0.000457764	
6.6217	0.106201	0.000457764	
6.62109	0.105896	0.000457764	
6.62109	0.105896	0.000305176	
6.6214	0.10437	-0.000152588	
6.62079	0.101013	-0.000305176	
6.62109	0.101318	0.000152588	
6.62292	0.100708	0.000152588	
6.62476	0.100403	-0.000152588	
6.62628	0.101013	0.000610352	
6.62537	0.101013	0.000610352	
6.62598	0.0994873	0.000762939	
6.62598	0.0970459	0.000457764	
6.62628	0.09552	0.000305176	
6.62659	0.0964355	0.000457764	
6.62567	0.0958252	0.000457764	
6.6275	0.0961304	0.000457764	
6.62903	0.0958252	-0.000152588	
6.63055	0.0942993	0	
6.63116	0.0921631	0.000305176	
6.63086	0.0912476	0.000152588	
6.63055	0.0909424	0	
6.63055	0.0912476	0.000305176	
6.63116	0.0912476	0.000305176	
6.63239	0.0912476	0.00152588	
6.63483	0.0912476	0.0012207	
6.63574	0.0894165	0.000457764	
6.63574	0.0869751	0.000610352	
6.63544	0.0863647	0.000610352	
6.63605	0.0857544	0.000457764	
6.63574	0.0863647	0.000305176	
6.63635	0.0860596	0.000152588	
6.63605	0.0857544	0.000457764	
6.63696	0.085144	0.000457764	
6.6394	0.0817871	0.000305176	
6.64063	0.0811768	0.000152588	
6.64154	0.0814819	0.000457764	
6.64124	0.0811768	0.000762939	
6.64093	0.0805664	0.000610352	
6.64093	0.0811768	0.000762939	
6.64093	0.0811768	0.000762939	
6.64246	0.0817871	0.000762939	
6.64398	0.0805664	0.000915527	
6.64551	0.0778198	0.000610352	
6.64581	0.0772095	-0.000305176	
6.6449	0.0775146	-0.000305176	
6.6449	0.0775146	0.000305176	
6.64581	0.0769043	0	
6.64551	0.0772095	-0.000152588	
6.64764	0.0772095	0.000457764	
6.64948	0.0756836	0.000610352	
6.64978	0.0738525	0.000457764	
6.65039	0.0726318	0.000762939	
6.65039	0.0723267	0.000305176	
6.6507	0.0723267	0.000457764	
6.65039	0.0720215	0.000915527	
6.65009	0.0723267	0.000152588	
6.65192	0.0720215	-0.000305176	
6.65405	0.0717163	-0.000152588	
6.65527	0.0701904	0.000152588	
6.65588	0.067749	0.000152588	
6.65588	0.0674438	0.000305176	
6.65497	0.067749	0.000305176	
6.65527	0.0668335	0.000457764	
6.65588	0.0674438	0.000915527	
6.65558	0.0671387	0.00137329	
6.6568	0.0665283	0.000457764	
6.66016	0.0674438	0.000457764	
6.66016	0.0665283	0.000762939	
6.66016	0.0662231	0.000762939	
6.66046	0.0628662	0.000152588	
6.66107	0.0622559	0.000305176	
6.66046	0.0622559	0.000762939	
6.66016	0.062561	0.000610352	
6.66229	0.0622559	0.000457764	
6.66412	0.062561	0.000152588	
6.66534	0.0622559	0.000762939	
6.66565	0.062561	0.00106812	
6.66565	0.062561	0.000457764	
6.66534	0.0619507	0.000762939	
6.66565	0.0610352	0.000762939	
6.66595	0.0588989	0.000915527	
6.66718	0.0576782	0.000610352	
6.66992	0.0576782	0.000457764	
6.66992	0.0576782	-0.000305176	
6.67023	0.0576782	-0.000305176	
6.67023	0.0570679	0.000152588	
6.67084	0.0570679	0.000457764	
6.66992	0.0567627	0	
6.67023	0.0579834	0.000152588	
6.67145	0.057373	0.000610352	
6.6745	0.0561523	0.000610352	
6.67389	0.0537109	0.000610352	
6.67603	0.0531006	0.000152588	
6.67542	0.0521851	0.000457764	
6.67511	0.0531006	0.000610352	
6.6748	0.0527954	0.000305176	
6.67511	0.0524902	-0.000305176	
6.67664	0.0521851	0.000152588	
6.67938	0.0524902	0.000305176	
6.6803	0.0527954	0.000305176	
6.68091	0.0524902	0.000152588	
6.6803	0.0524902	0.000305176	
6.67938	0.0527954	0.000457764	
6.6803	0.0515747	0.00106812	
6.67999	0.0488281	0.00106812	
6.68121	0.0476074	0.000305176	
6.68396	0.0476074	0.000457764	
6.68488	0.0473022	0.000457764	
6.68518	0.0473022	0.000610352	
6.68488	0.0482178	0	
6.68549	0.0473022	0	
6.68488	0.0476074	0.000152588	
6.6864	0.0473022	0.000610352	
6.68945	0.0476074	0.000457764	
6.69006	0.0476074	0	
6.69006	0.0482178	0.000762939	
6.69067	0.0479126	0.00137329	
6.69067	0.0476074	0.000610352	
6.69037	0.0463867	0.000762939	
6.68976	0.0442505	0.000915527	
6.69159	0.0424194	0.000457764	
6.69373	0.043335	0.000762939	
6.69495	0.0424194	0.000305176	
6.69525	0.043335	-0.000610352	
6.69556	0.0430298	-0.000152588	
6.69525	0.0424194	0.000152588	
6.69464	0.0427246	0.000152588	
6.69525	0.0421143	0.000152588	
6.69647	0.0427246	0.000305176	
6.69861	0.043335	0.000457764	
6.70044	0.0430298	0.000762939	
6.70074	0.0430298	0.000457764	
6.69983	0.0424194	0.000305176	
6.70013	0.0430298	0.000457764	
6.69952	0.0424194	0.000610352	
6.70044	0.0430298	0.000152588	
6.70105	0.0405884	-0.000152588	
6.7041	0.0384521	0.000152588	
6.70441	0.0378418	0.000457764	
6.70532	0.0378418	0.000305176	
6.70532	0.0378418	0	
6.70441	0.0378418	0.000152588	
6.70532	0.038147	0.000457764	
6.70685	0.0378418	0.000762939	
6.70898	0.0378418	0.00152588	
6.7099	0.0378418	0.000610352	
6.71051	0.038147	0.000915527	
6.71021	0.0375366	0.000305176	
6.71021	0.0375366	0.000457764	
6.71051	0.0372314	0	
6.7099	0.0378418	0	
6.71082	0.0369263	0	
6.71387	0.0372314	0.000457764	
6.71478	0.0378418	0.000152588	
6.71417	0.0378418	0.000457764	
6.71509	0.038147	0.000610352	
6.71509	0.0372314	0.0012207	
6.71509	0.0378418	0.000915527	
6.71692	0.0375366	0.000610352	
6.71906	0.0372314	0.000762939	
6.71936	0.032959	0.000610352	
6.71997	0.032959	0.000610352	
6.71875	0.032959	0.000305176	
6.71997	0.0326538	-0.000152588	
6.71906	0.032959	-0.000457764	
6.71997	0.032959	0.000305176	
6.72089	0.0332642	0	
6.72333	0.0332642	0.000305176	
6.72455	0.032959	0	
6.72424	0.032959	0.000457764	
6.72485	0.0326538	0.000610352	
6.72516	0.032959	0.000610352	
6.72516	0.032959	0.000152588	
6.72607	0.0332642	0.000305176	
6.72852	0.0332642	0.000762939	
6.73004	0.032959	0.000305176	
6.72913	0.0320435	-0.000305176	
6.72943	0.0326538	0	
6.72943	0.0332642	0.000457764	
6.72974	0.0326538	0	
6.72913	0.0326538	0	
6.73065	0.0326538	0	
6.7334	0.0332642	0.000152588	
6.73431	0.0326538	0.0012207	
6.73462	0.0326538	0.0012207	
6.73462	0.0326538	0.000610352	
6.73462	0.0326538	0.000762939	
6.73462	0.032959	0.000915527	
6.73615	0.0326538	0.000457764	
6.73859	0.0326538	0	
6.7392	0.0311279	0	
6.7395	0.0296021	0.000305176	
6.73981	0.027771	0.000457764	
6.73981	0.0280762	0.000305176	
6.74011	0.0274658	0.000152588	
6.74103	0.027771	0.000457764	
6.74347	0.027771	0.0012207	
6.74438	0.027771	0.000762939	
6.74469	0.0280762	0.000915527	
6.74377	0.0280762	0.000610352	
6.745	0.027771	0.000610352	
6.74438	0.0280762	0.000610352	
6.74408	0.0283813	0.000457764	
6.74622	0.0280762	-0.000305176	
6.74805	0.0280762	-0.000610352	
6.74896	0.0280762	0.000457764	
6.74927	0.0286865	-0.000152588	
6.74957	0.0280762	0.000152588	
6.74927	0.027771	0.000152588	
6.74927	0.0286865	0.000457764	
6.75018	0.0280762	0.000305176	
6.75323	0.0283813	0.000305176	
6.75385	0.0283813	0.000305176	
6.75385	0.027771	0.000457764	
6.75446	0.0274658	0.000152588	
6.75446	0.0283813	0.000305176	
6.75415	0.0280762	0	
6.75568	0.027771	0	
6.75812	0.027771	0.000457764	
6.75903	0.0274658	0	
6.75934	0.0274658	0.000305176	
6.75903	0.0280762	0.000152588	
6.75903	0.027771	0.000610352	
6.75903	0.0274658	0.00137329	
6.76056	0.027771	0.0012207	
6.7627	0.0280762	0.000457764	
6.76422	0.0280762	0.000305176	
6.76361	0.0280762	0.000762939	
6.76392	0.0280762	0.000762939	
6.76422	0.027771	-0.000152588	
6.76453	0.027771	0.000457764	
6.76392	0.0280762	0.000305176	
6.76605	0.0280762	0.00106812	
6.76849	0.0271606	0.000457764	
6.7691	0.0280762	0.000457764	
6.7688	0.027771	0.000305176	
6.7691	0.0274658	0.000915527	
6.7691	0.0268555	0.000915527	
6.7688	0.0238037	0.000610352	
6.77002	0.0231934	0.000457764	
6.77338	0.0231934	0.000457764	
6.77429	0.0234985	0.000915527	
6.7746	0.022583	0.000457764	
6.77429	0.022583	-0.000305176	
6.77429	0.0231934	-0.000152588	
6.77521	0.0231934	0.000305176	
6.77521	0.0231934	0.000152588	
6.77765	0.022583	0.000152588	
6.77887	0.0228882	0.000305176	
6.77948	0.0231934	0.000457764	
6.77887	0.0231934	0.000457764	
6.77887	0.0231934	0.000457764	
6.77948	0.0228882	0	
6.7804	0.0231934	0.000305176	
6.78284	0.0231934	0.000457764	
6.78314	0.0231934	0.000305176	
6.78375	0.022583	-0.000457764	
6.78375	0.0228882	-0.000152588	
6.78406	0.022583	0.000152588	
6.78436	0.0234985	0.000152588	
6.78528	0.0231934	0.000305176	
6.78802	0.0228882	0	
6.78894	0.0231934	0.000457764	
6.78894	0.0228882	0.00137329	
6.78894	0.0234985	0.000762939	
6.78894	0.0231934	0.000762939	
6.78955	0.0231934	0.000152588	
6.79016	0.0228882	0.000305176	
6.79291	0.0231934	0.000762939	
6.79352	0.0228882	0.000152588	
6.79413	0.0234985	0.000152588	
6.79352	0.0228882	0.000305176	
6.79352	0.0228882	0.000762939	
6.79321	0.0228882	0.000152588	
6.79504	0.0231934	0.000152588	
6.7981	0.0234985	0.000457764	
6.7984	0.0228882	0.00167847	
6.7984	0.022583	0.000610352	
6.7984	0.0228882	0.000915527	
6.7981	0.0231934	0.000915527	
6.79993	0.0231934	0.000762939	
6.80206	0.0228882	0.000457764	
6.80359	0.0234985	0.000152588	
6.80328	0.0231934	-0.000610352	
6.80298	0.0231934	-0.000305176	
6.80328	0.022583	0.000457764	
6.80328	0.0228882	0	
6.80542	0.0216675	0	
6.80725	0.0186157	0.000457764	
6.80847	0.0177002	0.000610352	
6.80847	0.0186157	0.000305176	
6.80878	0.0177002	0.000457764	
6.80847	0.0177002	0.000152588	
6.80817	0.0180054	0.000152588	
6.80939	0.0186157	0.000305176	
6.81183	0.0180054	0.000305176	
6.81396	0.0183105	-0.000305176	
6.81366	0.0186157	0	
6.81305	0.0177002	0.000305176	
6.81366	0.0183105	0.000152588	
6.81335	0.0180054	0.000152588	
6.81427	0.0177002	0.000152588	
6.81702	0.0183105	0.000610352	
6.81854	0.0177002	0.000915527	
6.81854	0.0186157	0.00106812	
6.81824	0.017395	0.000305176	
6.81824	0.0186157	0.000152588	
6.81854	0.0177002	0.000610352	
6.81915	0.0186157	0.000610352	
6.8222	0.0183105	-0.000305176	
6.82312	0.0186157	0.000305176	
6.82343	0.0180054	0.000305176	
6.82281	0.0183105	0.000762939	
6.82373	0.0180054	0.000610352	
6.82281	0.0180054	0.000457764	
6.82434	0.0177002	0.000610352	
6.82617	0.0183105	0.00137329	
6.828	0.0180054	0.000610352	
6.82922	0.0183105	0.000457764	
6.828	0.0186157	0.000762939	
6.82831	0.0186157	0.000762939	
6.82983	0.0183105	0.000610352	
6.83197	0.0186157	0.000152588	
6.83289	0.0183105	-0.000152588	
6.8335	0.0180054	0	
6.83289	0.0180054	0.000305176	
6.8335	0.0180054	0.000457764	
6.8335	0.0183105	0.000152588	
6.83441	0.0164795	0.000610352	
6.83716	0.0146484	0.000762939	
6.83746	0.0134277	0.000610352	
6.83807	0.0134277	0.000152588	
6.83838	0.0137329	0.000305176	
6.83777	0.0134277	0.000457764	
6.83777	0.0140381	0.000610352	
6.8396	0.0131226	0.000152588	
6.84174	0.0134277	-0.000305176	
6.84265	0.0134277	0	
6.84357	0.0140381	0.000305176	
6.84387	0.0134277	0	
6.84326	0.0128174	0.000152588	
6.84448	0.0134277	0.000152588	
6.84662	0.0131226	0.000610352	
6.84784	0.0134277	0.0012207	
6.84723	0.0134277	0.000762939	
6.84845	0.0134277	0.000305176	
6.84814	0.0137329	0.000915527	
6.84814	0.0128174	0.000610352	
6.84937	0.0131226	0.000762939	
6.85242	0.0131226	0.000152588	
6.85303	0.0131226	0.000457764	
6.85364	0.0134277	0.000305176	
6.85272	0.0134277	0.000457764	
6.85272	0.0134277	0.000610352	
6.85303	0.0131226	0.000152588	
6.85425	0.0134277	0.000457764	
6.8573	0.0134277	0.00106812	
6.85791	0.0131226	0.000915527	
6.8576	0.0131226	0.000305176	
6.8576	0.0131226	0.000457764	
6.85822	0.012207	0.000610352	
6.85883	0.00915527	0.000762939	
6.86157	0.00854492	0.000152588	
6.86249	0.00854492	-0.000610352	
6.8631	0.00823975	-0.000305176	
6.8631	0.00854492	0	
6.86249	0.00793457	0.000305176	
6.8634	0.00762939	0	
6.86432	0.00823975	0	
6.86707	0.00854492	0.000457764	
6.86798	0.00854492	0.000610352	
6.86768	0.00854492	0.000457764	
6.86798	0.00823975	0.000305176	
6.86737	0.00854492	0.000610352	
6.86798	0.00793457	0.000305176	
6.8689	0.00793457	0	
6.87164	0.00762939	-0.000305176	
6.87256	0.00823975	-0.000152588	
6.87286	0.00762939	0	
6.87286	0.00854492	0.000305176	
6.87317	0.00854492	0.000457764	
6.87347	0.00854492	0.000152588	
6.87592	0.00854492	0.000762939	
6.87775	0.00823975	0.00167847	
6.87805	0.00823975	0.000762939	
6.87775	0.0088501	0.000457764	
6.87775	0.00854492	0.000457764	
6.87744	0.00854492	0.000305176	
6.87897	0.00701904	0.000457764	
6.8811	0.00335693	0.000305176	
6.88263	0.00335693	0.000152588	
6.88202	0.00335693	0.000305176	
6.88263	0.00335693	0.000457764	
6.88202	0.00335693	0.000457764	
6.88232	0.00335693	0.000610352	
6.88385	0.00396729	0.000457764	
6.88568	0.00305176	0.00152588	
6.88782	0.00305176	0.000610352	
6.8869	0.00366211	0.000457764	
6.88721	0.00335693	0.000457764	
6.88751	0.00335693	0.000762939	
6.88904	0.00335693	0.000610352	
6.89178	0.00305176	0.000610352	
6.89209	0.00366211	-0.000152588	
6.89178	0.00366211	-0.000305176	
6.8927	0.00305176	0.000152588	
6.8924	0.00305176	0	
6.89178	0.00335693	0.000457764	
6.89423	0.00305176	0.000457764	
6.89606	0.00335693	0.000457764	
6.89728	0.00305176	0.000610352	
6.89728	0.00366211	0.000305176	
6.89758	0.00305176	0.000305176	
6.89728	0.00335693	0.000457764	
6.8988	0.00183105	0.000305176	
6.90186	0	0	
6.90155	-0.00152588	0	
6.90247	-0.00152588	-0.000305176	
6.90277	-0.00152588	0.000762939	
6.90338	-0.000915527	0.000305176	
6.90247	-0.000915527	0.000152588	
6.90338	-0.000915527	0.000305176	
6.90582	-0.00152588	0.000610352	
6.90735	-0.000610352	0.0012207	
6.90735	-0.000915527	0.00106812	
6.90704	-0.00183105	0.000762939	
6.90765	-0.00183105	0.000915527	
6.90735	-0.00183105	0.000152588	
6.90826	-0.0012207	0.000762939	
6.91132	-0.00152588	0.000305176	
6.91132	-0.0012207	0.000457764	
6.91193	-0.00183105	0.000610352	
6.91193	-0.000915527	0.000762939	
6.91223	-0.000610352	0.000305176	
6.91254	-0.0012207	0.000457764	
6.91589	-0.000610352	0.000915527	
6.9165	-0.00152588	0.000915527	
6.91711	-0.0012207	0.000762939	
6.91711	-0.0012207	0.000457764	
6.91772	-0.00274658	0.000610352	
6.91681	-0.00610352	0.000457764	
6.91864	-0.00610352	0.000762939	
6.92108	-0.00640869	0.000305176	
6.922	-0.00610352	-0.000457764	
6.92169	-0.00610352	0	
6.9223	-0.00610352	0.000457764	
6.92169	-0.00640869	0.000152588	
6.92322	-0.00640869	0.000152588	
6.92566	-0.00579834	0.000152588	
6.92688	-0.00610352	0.000915527	
6.92688	-0.00610352	0.000610352	
6.92688	-0.00579834	0	
6.92719	-0.00579834	0.000305176	
6.92688	-0.00579834	0.000457764	
6.92902	-0.00610352	0.000152588	
6.93085	-0.00640869	0.000152588	
6.93176	-0.00610352	-0.000610352	
6.93146	-0.00610352	0	
6.93207	-0.00549316	0.000152588	
6.93176	-0.00640869	0.000152588	
6.93115	-0.00640869	0.000457764	
6.93298	-0.00610352	0.000610352	
6.93604	-0.00762939	0.000457764	
6.93726	-0.010376	0.0012207	
6.93726	-0.0112915	0.000915527	
6.93726	-0.0112915	0.000152588	
6.93695	-0.0115967	0.000610352	
6.93756	-0.012207	0.000152588	
6.94061	-0.0106812	0.000762939	
6.94153	-0.0109863	0.000152588	
6.94214	-0.0109863	0.000152588	
6.94244	-0.0109863	0.000152588	
6.94214	-0.0106812	0.000305176	
6.94183	-0.0109863	0.000305176	
6.94275	-0.0112915	0.000457764	
6.94519	-0.0106812	0.00106812	
6.94641	-0.0109863	0.0012207	
6.94672	-0.0109863	0.000610352	
6.94611	-0.0112915	0.000762939	
6.94672	-0.0109863	0.000762939	
6.94885	-0.0112915	0.000610352	
6.95038	-0.0106812	0.000305176	
6.9516	-0.0112915	0.000305176	
6.95129	-0.0109863	-0.000610352	
6.9516	-0.0125122	0.000152588	
6.9519	-0.0146484	0.000305176	
6.9519	-0.0158691	0	
6.95313	-0.0161743	0.000457764	
6.95496	-0.0164795	0	
6.95618	-0.0161743	0.000915527	
6.95679	-0.0164795	0.000610352	
6.95618	-0.015564	0.000762939	
6.95618	-0.0161743	0.000610352	
6.95587	-0.0158691	0.000152588	
6.9574	-0.0158691	0	
6.96014	-0.0158691	0.000152588	
6.96106	-0.0158691	-0.000152588	
6.96136	-0.0158691	0	
6.96167	-0.0161743	0.000457764	
6.96106	-0.0158691	0	
6.96228	-0.0152588	0.000152588	
6.96503	-0.0161743	0.000457764	
6.96564	-0.0152588	0.000457764	
6.96594	-0.0158691	0.0012207	
6.96594	-0.0158691	0.000915527	
6.96686	-0.017395	0.000305176	
6.96625	-0.0204468	0.000915527	
6.96716	-0.0210571	0.000457764	
6.97021	-0.020752	0.000762939	
6.97174	-0.0210571	0.000305176	
6.97083	-0.0210571	0.000305176	
6.97174	-0.0213623	-0.000152588	
6.97174	-0.0204468	0.000305176	
6.97327	-0.0210571	0.000457764	
6.97479	-0.020752	0.000457764	
6.97632	-0.020752	0.000762939	
6.97632	-0.0210571	0.00106812	
6.97601	-0.0219727	0.000457764	
6.97632	-0.0213623	0.000762939	
6.97632	-0.0204468	0.000915527	
6.97723	-0.020752	0.000457764	
6.97998	-0.0216675	0.000610352	
6.9809	-0.0210571	0.000305176	
6.9812	-0.0213623	-0.000305176	
6.9809	-0.0213623	-0.000152588	
6.9812	-0.0222778	0.000762939	
6.98059	-0.0244141	0	
6.98181	-0.0262451	0.000457764	
6.98517	-0.0259399	0.000305176	
6.98547	-0.0256348	0.000762939	
6.98578	-0.0259399	0.000457764	
6.98669	-0.0259399	0.000305176	
6.98578	-0.0262451	0.000305176	
6.98761	-0.0265503	0.000305176	
6.98975	-0.0262451	0.000152588	
6.99036	-0.0256348	0	
6.99066	-0.0259399	-0.000610352	
6.99127	-0.0259399	0.000152588	
6.99066	-0.0256348	0.000457764	
6.99127	-0.0259399	0.000457764	
6.99249	-0.0262451	0.000305176	
6.99463	-0.0256348	-0.000152588	
6.99554	-0.0259399	0.000610352	
6.99615	-0.0253296	0.00137329	
6.99585	-0.0259399	0.00106812	
6.99585	-0.0253296	0	
6.99615	-0.0274658	0.000610352	
6.99738	-0.0302124	0.000152588	
7.00012	-0.0308228	0.00106812	
7.00104	-0.0311279	0.000152588	
7.00104	-0.0308228	0.000305176	
7.00043	-0.0311279	0.000305176	
7.00104	-0.0305176	0.000457764	
7.00134	-0.0311279	0.000305176	
7.00195	-0.0308228	0.000305176	
7.00439	-0.0302124	0.000762939	
7.00531	-0.0311279	0.000915527	
7.00592	-0.0317383	0.000762939	
7.00592	-0.0308228	0.000457764	
7.00653	-0.0311279	0.000610352	
7.00806	-0.0302124	0.000610352	
7.00928	-0.0308228	0.000610352	
7.01172	-0.0311279	0.000152588	
7.01019	-0.0311279	0	
7.0105	-0.0302124	-0.000305176	
7.0105	-0.0305176	0.000305176	
7.01111	-0.0302124	-0.000305176	
7.01202	-0.0311279	0.000457764	
7.01538	-0.0350952	0.000305176	
7.0163	-0.0354004	0.000457764	
7.0163	-0.03479	0.000457764	
7.01599	-0.0354004	0.000305176	
7.01569	-0.0350952	0.000305176	
7.01599	-0.0350952	0.000305176	
7.01691	-0.0357056	0.000152588	
7.01904	-0.0354004	0.000152588	
7.02057	-0.0363159	-0.000152588	
7.02057	-0.0354004	0	
7.02179	-0.0354004	0.000305176	
7.02087	-0.03479	0.000152588	
7.02087	-0.0357056	0	
7.02271	-0.0357056	0.000152588	
7.02515	-0.0354004	0.000762939	
7.02606	-0.0357056	0.00137329	
7.02576	-0.0357056	0.000762939	
7.02515	-0.0357056	0.000152588	
7.02545	-0.0350952	0.000457764	
7.02545	-0.0357056	0.000457764	
7.02698	-0.0363159	0.000305176	
7.02942	-0.0396729	0.000152588	
7.03033	-0.0405884	0.000152588	
7.03033	-0.0402832	0.000305176	
7.03125	-0.039978	0.000457764	
7.03033	-0.039978	0.000457764	
7.03033	-0.039978	0.000305176	
7.03156	-0.0408936	0.000915527	
7.03461	-0.0408936	0.0012207	
7.03522	-0.0405884	0.000610352	
7.03613	-0.039978	0.000915527	
7.03491	-0.0408936	0.000457764	
7.03583	-0.0408936	0.000762939	
7.03674	-0.0402832	0.000762939	
7.03918	-0.0405884	0	
7.0401	-0.0408936	-0.000610352	
7.04102	-0.0405884	-0.000152588	
7.04071	-0.039978	0.000305176	
7.03979	-0.0408936	-0.000152588	
7.04041	-0.0402832	0.000457764	
7.04193	-0.0408936	0.000305176	
7.04407	-0.039978	0.000457764	
7.04529	-0.0405884	0.000457764	
7.04468	-0.0421143	0.000610352	
7.0459	-0.0448608	0.000305176	
7.04529	-0.0460815	0.000457764	
7.04529	-0.0454712	0	
7.04681	-0.0457764	0.000457764	
7.04926	-0.0454712	-0.000305176	
7.04987	-0.0454712	0	
7.05048	-0.0460815	0.000152588	
7.05017	-0.0454712	0.000152588	
7.05109	-0.0454712	0.000457764	
7.05048	-0.0457764	0.000305176	
7.05139	-0.0454712	0.000610352	
7.05383	-0.045166	0.0012207	
7.05536	-0.0457764	0.0012207	
7.05536	-0.0457764	0.000610352	
7.05505	-0.0457764	0.000152588	
7.05566	-0.045166	0.000610352	
7.05475	-0.0454712	0.000457764	
7.05505	-0.045166	0.000152588	
7.05719	-0.0463867	0.000305176	
7.05872	-0.0457764	0.000305176	
7.05994	-0.0454712	0.00106812	
7.06055	-0.0454712	0	
7.06085	-0.045166	0.000762939	
7.06055	-0.0463867	0.000610352	
7.06024	-0.0491333	0.00137329	
7.06146	-0.050354	0.000457764	
7.06421	-0.0497437	0.000915527	
7.06543	-0.050354	0.000762939	
7.06512	-0.0509644	0.000457764	
7.06451	-0.0512695	0.000457764	
7.06512	-0.0500488	0	
7.06451	-0.0500488	-0.000305176	
7.06635	-0.0506592	0.000152588	
7.0694	-0.0509644	0.000610352	
7.07062	-0.050354	0.000305176	
7.07031	-0.0506592	0.000305176	
7.0697	-0.050354	0.000152588	
7.0694	-0.0506592	0.000457764	
7.0694	-0.0512695	0.000610352	
7.07123	-0.050354	0.000152588	
7.07458	-0.0506592	-0.000152588	
7.07458	-0.0497437	0.000610352	
7.0755	-0.0500488	0.000152588	
7.07489	-0.050354	0	
7.07489	-0.0509644	-0.000305176	
7.07458	-0.0506592	0.000610352	
7.07642	-0.0506592	0.000457764	
7.07855	-0.0497437	-0.000152588	
7.08008	-0.050354	0.000152588	
7.08008	-0.0506592	0.000152588	
7.08008	-0.0500488	0.000915527	
7.08038	-0.0506592	0.0012207	
7.07947	-0.050354	0.000915527	
7.08038	-0.0500488	0.000305176	
7.0816	-0.0506592	0.000457764	
7.08374	-0.0500488	0.000305176	
7.08527	-0.0518799	0.000457764	
7.08496	-0.0540161	0	
7.08496	-0.0549316	0.000152588	
7.08435	-0.0549316	0.000305176	
7.08527	-0.0552368	0.000457764	
7.08618	-0.0552368	0	
7.08862	-0.0549316	0.000915527	
7.08923	-0.0552368	0.000305176	
7.09015	-0.055542	0.0012207	
7.09015	-0.055542	0.000762939	
7.08954	-0.0552368	0.000762939	
7.08984	-0.0552368	0.000915527	
7.09045	-0.0546265	0.000152588	
7.0932	-0.0549316	0.000457764	
7.09503	-0.0549316	0.000762939	
7.09473	-0.0552368	-0.000457764	
7.09473	-0.0558472	-0.000305176	
7.09381	-0.055542	0.000457764	
7.09473	-0.0546265	-0.000152588	
7.09473	-0.055542	0.000305176	
7.09595	-0.0552368	0.000457764	
7.09839	-0.0552368	0.000457764	
7.09991	-0.055542	0.000610352	
7.09961	-0.0552368	0.000152588	
7.09961	-0.0549316	0.000457764	
7.09961	-0.055542	0.000610352	
7.0993	-0.0549316	0	
7.10022	-0.0549316	0.000457764	
7.10358	-0.0549316	-0.000610352	
7.10449	-0.0552368	0	
7.1051	-0.055542	0.000457764	
7.10449	-0.0549316	0.000152588	
7.1048	-0.055542	0.000457764	
7.1048	-0.055542	0.000152588	
7.1051	-0.0549316	0.000610352	
7.1048	-0.055542	0.0012207	
7.10846	-0.055542	0.00106812	
7.10968	-0.0546265	0.000457764	
7.11029	-0.0552368	0.000152588	
7.10968	-0.0552368	0.000610352	
7.10938	-0.0549316	0.000915527	
7.10968	-0.0561523	0.000457764	
7.1106	-0.055542	0.000305176	
7.11304	-0.0546265	0.000305176	
7.11334	-0.0515747	0.000610352	
7.11426	-0.050354	0.000457764	
7.11426	-0.0506592	0.000457764	
7.11365	-0.0500488	0.000457764	
7.11365	-0.050354	0.00106812	
7.11456	-0.050354	0.000915527	
7.11548	-0.0509644	0.000457764	
7.11884	-0.050354	0.000457764	
7.11853	-0.050354	0.000610352	
7.11914	-0.0509644	0.000915527	
7.11884	-0.0506592	0.000152588	
7.11914	-0.050354	-0.000457764	
7.11914	-0.0509644	0.000152588	
7.11914	-0.0506592	0.000152588	
7.12036	-0.050354	0.000152588	
7.12311	-0.050354	0	
7.12402	-0.050354	0.000305176	
7.12402	-0.0506592	0.000610352	
7.12433	-0.050354	0.000152588	
7.12372	-0.0500488	0.000457764	
7.12494	-0.050354	-0.000152588	
7.12433	-0.0488281	0.000305176	
7.12585	-0.0463867	-0.000152588	
7.12799	-0.0457764	0.000305176	
7.12891	-0.0454712	-0.000305176	
7.12921	-0.0457764	0.000305176	
7.12982	-0.0448608	0.000457764	
7.12952	-0.0457764	0	
7.12952	-0.045166	0.000152588	
7.12921	-0.045166	0.000305176	
7.13074	-0.045166	0.000762939	
7.13348	-0.0460815	0.00137329	
7.13379	-0.045166	0.000610352	
7.1344	-0.0460815	0.000152588	
7.13409	-0.0445557	0.000915527	
7.1344	-0.0418091	0.000457764	
7.13379	-0.0411987	0.000915527	
7.13562	-0.0405884	0	
7.13776	-0.0408936	0.000610352	
7.13898	-0.0405884	0.000305176	
7.13898	-0.0405884	0.000457764	
7.13898	-0.0402832	0.000305176	
7.13898	-0.0408936	0.000457764	
7.13898	-0.0405884	0.000762939	
7.13898	-0.0390625	0.00106812	
7.13959	-0.0369263	0.000915527	
7.1402	-0.0357056	0.000762939	
7.14294	-0.0354004	0.000305176	
7.14417	-0.0354004	0.000457764	
7.14294	-0.0354004	0.000610352	
7.14386	-0.0354004	0.000152588	
7.14325	-0.0354004	-0.000305176	
7.14386	-0.0360107	-0.000152588	
7.14417	-0.0350952	0.000305176	
7.14478	-0.0317383	0	
7.14722	-0.0311279	0.000152588	
7.14874	-0.0302124	0.000152588	
7.14905	-0.0308228	0.000762939	
7.14935	-0.0311279	0.000152588	
7.14905	-0.0308228	0.000610352	
7.14905	-0.0292969	0.000457764	
7.14905	-0.0265503	0.000305176	
7.14996	-0.0265503	0.000305176	
7.15302	-0.0262451	0	
7.15363	-0.0262451	-0.000305176	
7.15332	-0.0259399	0	
7.15393	-0.0259399	0.000457764	
7.15393	-0.0250244	0.000305176	
7.15485	-0.0213623	0.000152588	
7.15393	-0.0213623	0.000305176	
7.15515	-0.0210571	0.000762939	
7.15729	-0.020752	0.000762939	
7.15912	-0.020752	0.000610352	
7.15851	-0.0195313	0.000457764	
7.15912	-0.0164795	0.000457764	
7.15851	-0.0161743	0.000457764	
7.15912	-0.0158691	0.000457764	
7.15881	-0.0161743	-0.000152588	
7.15881	-0.0164795	0.000305176	
7.15942	-0.0146484	0.000152588	
7.16278	-0.012207	0.000305176	
7.1637	-0.0109863	0.000305176	
7.1637	-0.0106812	0.000457764	
7.1637	-0.0112915	0.000915527	
7.16248	-0.0112915	0.000915527	
7.1637	-0.0100708	0.000762939	
7.1637	-0.00701904	0.000915527	
7.16461	-0.00610352	0.000457764	
7.16797	-0.00579834	0.000762939	
7.16919	-0.00640869	0.000457764	
7.16888	-0.00457764	0.000152588	
7.16949	-0.00213623	-0.000152588	
7.16919	-0.0012207	-0.000152588	
7.16827	-0.0012207	0.000305176	
7.16919	-0.000610352	-0.000305176	
7.16827	0.000305176	0.000610352	
7.17072	0.00183105	0	
7.17194	0.00305176	0.000610352	
7.17346	0.00305176	0.000610352	
7.17377	0.00305176	0.000762939	
7.17407	0.00427246	0.000305176	
7.17346	0.00732422	0.000457764	
7.17346	0.00854492	0.000305176	
7.17316	0.00793457	0	
7.17499	0.0100708	-0.000610352	
7.17804	0.0125122	0.000305176	
7.17834	0.0134277	0.000305176	
7.17865	0.0131226	0.000152588	
7.17865	0.0131226	0.000152588	
7.17896	0.0152588	0.000305176	
7.17865	0.0177002	0.000305176	
7.17926	0.0180054	0.00106812	
7.17865	0.0180054	0.00106812	
7.18018	0.0201416	0.000305176	
7.18292	0.022583	0.000610352	
7.18353	0.0231934	0.000305176	
7.18323	0.0231934	0.000457764	
7.18353	0.0231934	0.000305176	
7.18414	0.0250244	0.000152588	
7.18323	0.0274658	0.000457764	
7.18292	0.0280762	0.000457764	
7.18384	0.027771	0.000305176	
7.18506	0.0299072	0.000457764	
7.18781	0.0326538	0.000457764	
7.18872	0.0326538	0.00137329	
7.18842	0.0326538	0.000457764	
7.18842	0.0341797	0.000915527	
7.18842	0.0372314	0.000457764	
7.18872	0.0372314	0.000305176	
7.18842	0.0378418	0.000915527	
7.18872	0.0387573	0	
7.19025	0.0421143	-0.000610352	
7.19238	0.043335	0.000152588	
7.1933	0.0430298	0.000610352	
7.1936	0.0439453	-0.000152588	
7.19299	0.0466919	0.000152588	
7.19269	0.0473022	0.000152588	
7.19299	0.0469971	0.000610352	
7.1936	0.0494385	0.000457764	
7.1936	0.0515747	0.000457764	
7.19391	0.0524902	0.000305176	
7.19299	0.0524902	0.000152588	
7.19513	0.0534058	0.000610352	
7.19757	0.0561523	0.000305176	
7.19849	0.057373	-0.000152588	
7.19788	0.057373	0	
7.19818	0.0588989	0.000305176	
7.19879	0.0616455	0.000152588	
7.19879	0.0628662	0.000457764	
7.19849	0.0637817	0	
7.19849	0.0668335	0.00106812	
7.19818	0.0668335	0.0012207	
7.20001	0.0668335	0.000762939	
7.20184	0.0683594	0.000305176	
7.20245	0.0717163	0.00106812	
7.20337	0.0717163	0.000152588	
7.20337	0.072937	0.000610352	
7.20337	0.0738525	0.000152588	
7.20367	0.0759888	0	
7.20337	0.0775146	0.000152588	
7.20306	0.0769043	0.000305176	
7.20428	0.0787354	0.000305176	
7.20734	0.0802612	0.000457764	
7.20764	0.0814819	0.000762939	
7.20764	0.0830078	0.000915527	
7.20825	0.085144	0.000610352	
7.20856	0.0860596	0.000152588	
7.20764	0.0863647	0.000915527	
7.20825	0.0878906	0.000762939	
7.20764	0.0900269	0.000305176	
7.20825	0.0912476	0	
7.20947	0.0909424	-0.000152588	
7.21222	0.0930786	0	
7.21375	0.0949097	0.000305176	
7.21344	0.09552	0.000152588	
7.21344	0.0979614	0.000152588	
7.21283	0.0994873	0	
7.21313	0.101624	0.000457764	
7.21344	0.100708	0.000457764	
7.21313	0.102539	0.000457764	
7.21466	0.104675	0.000457764	
7.21741	0.105591	0.000610352	
7.21832	0.105591	0.000457764	
7.21863	0.107117	0.000305176	
7.21771	0.110168	-0.000152588	
7.21771	0.110474	-0.000152588	
7.21771	0.109558	0.000152588	
7.21863	0.112	0	
7.21802	0.114441	0.000305176	
7.21863	0.115356	0.000457764	
7.21954	0.116272	0.00106812	
7.22198	0.119629	0.000915527	
7.22321	0.120544	0.000915527	
7.22382	0.121155	0.000610352	
7.22321	0.121765	0.000152588	
7.22321	0.124207	0.000305176	
7.22321	0.125732	0.000610352	
7.22321	0.126038	0	
7.22351	0.126343	0.000152588	
7.22321	0.129089	0.000152588	
7.22473	0.131226	0.000305176	
7.22717	0.1297	0.000152588	
7.22809	0.131226	0.000610352	
7.22839	0.134583	0.000915527	
7.22809	0.135193	0.00152588	
7.22839	0.136108	0.000610352	
7.22839	0.137329	0.000305176	
7.22717	0.139771	0.000457764	
7.22839	0.139465	0.000457764	
7.2287	0.140076	0.000762939	
7.22931	0.141907	-0.000152588	
7.23145	0.144348	-0.000152588	
7.23236	0.145264	0.000152588	
7.23297	0.145569	0.000610352	
7.23297	0.146484	0.000152588	
7.23297	0.149841	0.000152588	
7.23297	0.149536	0.000152588	
7.23236	0.150146	0.000457764	
7.23297	0.151062	0.000915527	
7.23297	0.154114	0.000457764	
7.23328	0.154724	0.000305176	
7.23358	0.155029	0.000610352	
7.23633	0.155945	0.000457764	
7.23877	0.158691	0.000457764	
7.23755	0.159302	-0.000305176	
7.23724	0.159302	-0.000305176	
7.23724	0.160828	0.000152588	
7.23785	0.164185	0.000152588	
7.23877	0.1651	0.000305176	
7.23785	0.16449	0.000305176	
7.23816	0.163879	0.000762939	
7.23785	0.165405	0.00137329	
7.23877	0.168762	0.000305176	
7.24213	0.169067	0.000457764	
7.24182	0.169373	0.00106812	
7.24274	0.170593	0.000305176	
7.24304	0.173645	0.000457764	
7.24243	0.174866	0.000152588	
7.24365	0.174561	0.000305176	
7.24243	0.174255	0.000305176	
7.24304	0.175476	0.000610352	
7.24304	0.178223	0.000152588	
7.24457	0.179138	0.000457764	
7.2467	0.179443	0.000915527	
7.24792	0.181274	0.00106812	
7.24762	0.183411	0.000305176	
7.24792	0.184021	0.000610352	
7.24762	0.184631	0.000762939	
7.24731	0.184326	0.000762939	
7.24823	0.186157	0.000915527	
7.24854	0.188904	0.000305176	
7.24762	0.189209	-0.000457764	
7.24762	0.189209	0	
7.24884	0.189819	0.000457764	
7.25067	0.190125	0	
7.25189	0.193481	-0.000152588	
7.25311	0.194092	0.000457764	
7.2525	0.194092	0.000457764	
7.2522	0.194092	0.000305176	
7.25281	0.195313	0.000762939	
7.25281	0.198669	0.000152588	
7.2525	0.198975	0.000457764	
7.25281	0.198669	0	
7.25281	0.198669	0.000305176	
7.25342	0.19989	-0.000305176	
7.25677	0.200806	0.000152588	
7.25739	0.202942	0.000457764	
7.25708	0.204163	-0.000152588	
7.25708	0.204468	0.000457764	
7.25708	0.203857	0	
7.25708	0.205994	0.000762939	
7.25677	0.20752	0.000915527	
7.25708	0.20874	0.000457764	
7.25739	0.208435	0.000152588	
7.25769	0.209045	0.000305176	
7.25952	0.20874	0.000457764	
7.26105	0.210571	0.000457764	
7.26227	0.213013	0.000152588	
7.26257	0.213318	0.000305176	
7.26227	0.213318	0.000457764	
7.26227	0.213318	0.000762939	
7.26288	0.213623	0.000152588	
7.26288	0.214233	0.000457764	
7.26257	0.215759	0.000457764	
7.26227	0.21759	0.0012207	
7.26288	0.218811	0.000610352	
7.26379	0.218201	0.000610352	
7.26685	0.219116	0.000305176	
7.26776	0.217896	0.000610352	
7.26776	0.220642	0.000610352	
7.26807	0.222778	0	
7.26746	0.223389	-0.000762939	
7.26746	0.222778	0.000152588	
7.26776	0.223389	0.000610352	
7.26837	0.223694	0.000305176	
7.26746	0.223083	0.000305176	
7.26776	0.223999	0.000152588	
7.26868	0.224915	0.000457764	
7.27081	0.227356	0.000457764	
7.27234	0.228271	0.000457764	
7.27264	0.228577	0.000457764	
7.27234	0.228882	0.000610352	
7.27295	0.228882	0	
7.27203	0.228271	0.000152588	
7.27325	0.228577	-0.000457764	
7.27203	0.229797	0.000610352	
7.27264	0.231628	0.000305176	
7.27295	0.233154	0	
7.27325	0.233765	0.000457764	
7.27631	0.232849	0.000305176	
7.27661	0.233765	0.000762939	
7.27722	0.233459	0.0012207	
7.27661	0.233459	0.000762939	
7.27692	0.233765	0.000152588	
7.27692	0.233459	0.000305176	
7.27783	0.233154	0.000457764	
7.27753	0.234985	0.000305176	
7.27722	0.237427	-0.000152588	
7.27661	0.237427	0.000610352	
7.27722	0.238342	0.000457764	
7.27844	0.237732	0.000457764	
7.28119	0.238342	0.000152588	
7.2818	0.237732	0.000762939	
7.28271	0.238342	0.000457764	
7.28241	0.238342	0.00106812	
7.2821	0.238342	0.000610352	
7.2821	0.237732	0.000305176	
7.28241	0.237732	0.000610352	
7.28271	0.238342	0.000305176	
7.2821	0.238647	0.000457764	
7.28271	0.238037	-0.000152588	
7.2821	0.239868	0	
7.28363	0.241699	0.000305176	
7.28668	0.242615	0.000457764	
7.28668	0.242615	-0.000152588	
7.28668	0.24231	0.000305176	
7.28729	0.243225	0.000457764	
7.28668	0.243835	0.000457764	
7.28699	0.243225	0.000915527	
7.28699	0.24353	0.000457764	
7.28729	0.242615	0.000457764	
7.28668	0.24353	0.000305176	
7.28668	0.243225	0.000762939	
7.28699	0.24292	0.000152588	
7.28851	0.24292	-0.000762939	
7.29156	0.243225	0.000152588	
7.29187	0.243225	0	
7.29187	0.24292	0	
7.29218	0.242615	0.000457764	
7.29187	0.242615	0.000152588	
7.29126	0.243835	0.00106812	
7.29218	0.24292	0.0012207	
7.29187	0.243225	0.000457764	
7.29218	0.243225	0.000305176	
7.29218	0.243225	0.000610352	
7.29218	0.243225	0.000610352	
7.29309	0.24353	0.000152588	
7.29553	0.242615	0.000152588	
7.29706	0.24353	0.000305176	
7.29706	0.24353	0.000457764	
7.29736	0.243225	0.000305176	
7.29736	0.243225	0.000152588	
7.29736	0.24292	0.000915527	
7.29675	0.243225	0.000457764	
7.29736	0.243835	0.000915527	
7.29675	0.242615	0.000305176	
7.29675	0.243225	0.000305176	
7.29736	0.24231	0.000457764	
7.29675	0.242615	0.000457764	
7.29828	0.243225	0.000305176	
7.30072	0.242615	0	
7.30164	0.243225	-0.000305176	
7.30103	0.242615	0	
7.30103	0.242615	0.000457764	
7.30164	0.243225	0	
7.30286	0.24292	0	
7.30164	0.24292	0.000152588	
7.30164	0.24353	0.000457764	
7.30286	0.243225	0.000762939	
7.30164	0.243835	0	
7.30194	0.243225	0.000457764	
7.30255	0.24292	0.000305176	
7.30316	0.24292	0.000152588	
7.30621	0.24292	0.000152588	
7.30621	0.242615	-0.000610352	
7.30713	0.243225	0	
7.30652	0.241394	0.000305176	
7.30682	0.239258	0	
7.30591	0.238037	0.000610352	
7.30621	0.238647	0.000152588	
7.30743	0.238342	0.000762939	
7.30682	0.238647	0.0012207	
7.30713	0.238342	0.000457764	
7.30682	0.238037	0.000152588	
7.30652	0.237732	0.000305176	
7.30835	0.238037	0.000610352	
7.31079	0.238647	0.000305176	
7.3114	0.238037	-0.000305176	
7.31232	0.238037	0.000457764	
7.31201	0.238037	0.000457764	
7.31201	0.238342	0.000305176	
7.3111	0.238037	0.000457764	
7.31232	0.236511	0.000610352	
7.31232	0.23468	0.000762939	
7.31232	0.233154	0.00106812	
7.31201	0.233459	0.000762939	
7.31171	0.233459	0.000305176	
7.31201	0.233459	0.000457764	
7.31354	0.233459	0.000915527	
7.31598	0.233459	0.000305176	
7.31659	0.233459	0	
7.3172	0.233154	-0.000305176	
7.31659	0.233459	0.000152588	
7.31689	0.233765	0.000152588	
7.31689	0.231934	0	
7.31659	0.228882	0.000152588	
7.31659	0.228577	0	
7.31659	0.228577	0.000457764	
7.31659	0.228882	0.000457764	
7.31689	0.227966	0.000305176	
7.31659	0.227966	0.000305176	
7.31812	0.228577	0.000457764	
7.32056	0.227966	0.000305176	
7.32178	0.228271	-0.000152588	
7.32208	0.227356	-0.000457764	
7.32178	0.224609	0.000457764	
7.32147	0.223083	0.000152588	
7.32117	0.223999	0	
7.32178	0.223694	0.000610352	
7.32117	0.223083	0.000305176	
7.32147	0.224304	0.000915527	
7.32117	0.223389	0.00106812	
7.32117	0.222168	0.000610352	
7.32147	0.219727	0.000305176	
7.32147	0.218811	0.000457764	
7.32269	0.219421	0.000915527	
7.32544	0.218506	0.000610352	
7.32635	0.218506	0.000152588	
7.32727	0.218811	0.000305176	
7.32605	0.218506	0.000610352	
7.32697	0.218506	0.000305176	
7.32605	0.21698	0.000305176	
7.32666	0.214233	0.000457764	
7.32605	0.213928	0.000457764	
7.32666	0.213623	0.000915527	
7.32635	0.213928	0.000457764	
7.32697	0.213623	0.000610352	
7.32666	0.213623	0.000457764	
7.32666	0.212097	0.000610352	
7.32788	0.209961	0.000457764	
7.33093	0.208435	0	
7.33215	0.20874	-0.000457764	
7.33185	0.20874	0.000305176	
7.33154	0.20874	0.000152588	
7.33215	0.208435	0	
7.33185	0.20752	0	
7.33185	0.204468	0.000305176	
7.33185	0.203552	0.000915527	
7.33154	0.204468	0.000457764	
7.33154	0.203857	0	
7.33154	0.204468	0.000457764	
7.33154	0.204468	0.000457764	
7.33154	0.202332	0	
7.33307	0.19989	0	
7.33551	0.19928	-0.000610352	
7.33643	0.19928	0.000457764	
7.33612	0.198975	0.000305176	
7.33582	0.19928	0.000152588	
7.33643	0.19928	0.000152588	
7.33643	0.197449	0.000152588	
7.33643	0.195007	0.000762939	
7.33704	0.194092	0.000762939	
7.33673	0.194092	0.000915527	
7.33673	0.194092	0.000457764	
7.33704	0.194092	0.000457764	
7.33704	0.193176	0.000305176	
7.33704	0.19043	0.000610352	
7.33734	0.189209	-0.000152588	
7.33826	0.189209	0.000305176	
7.34039	0.188904	0.000457764	
7.34131	0.188599	0.000305176	
7.34161	0.188599	0.000152588	
7.34192	0.187988	0.000610352	
7.34192	0.185547	0.000610352	
7.34192	0.184021	0.00137329	
7.34192	0.183411	0.000610352	
7.34161	0.183411	0.000610352	
7.341	0.184021	0.000305176	
7.34222	0.183411	0.000610352	
7.34161	0.180054	0.000610352	
7.34161	0.180054	-0.000305176	
7.341	0.180359	-0.000457764	
7.34283	0.180054	0.000152588	
7.34528	0.179443	0.000762939	
7.3465	0.178223	0	
7.3465	0.176086	0.000915527	
7.34589	0.174255	-0.000152588	
7.34619	0.174561	0.000915527	
7.34619	0.174561	0.000762939	
7.34619	0.174866	0.000305176	
7.34619	0.173035	0.000610352	
7.34619	0.170593	0.000305176	
7.3468	0.169373	0.000457764	
7.34619	0.169373	0	
7.34619	0.169373	-0.000610352	
7.3465	0.169983	-0.000152588	
7.3468	0.167847	0.000305176	
7.34741	0.165405	-0.000152588	
7.35016	0.16449	0.000457764	
7.35138	0.16449	0.000305176	
7.35138	0.164795	0.000915527	
7.35199	0.164795	0.0012207	
7.35168	0.163269	0.00106812	
7.35107	0.160217	0	
7.35138	0.159607	0.000762939	
7.35107	0.159607	0.000305176	
7.35138	0.160217	0.000915527	
7.35138	0.158997	0.000305176	
7.35138	0.158386	0.000457764	
7.35168	0.155029	0.000457764	
7.35107	0.155334	0.000305176	
7.35107	0.155334	0	
7.35138	0.155334	0.000457764	
7.35199	0.154724	0.000762939	
7.35565	0.154419	0.0012207	
7.35657	0.151367	0.000610352	
7.35657	0.150452	0.000152588	
7.35626	0.150757	0.000610352	
7.35626	0.150757	0.000610352	
7.35596	0.150146	0.000762939	
7.35596	0.148315	-0.000457764	
7.35657	0.145874	-0.000457764	
7.35657	0.145569	0	
7.35626	0.144958	0.000457764	
7.35687	0.145264	-0.000152588	
7.35596	0.144958	0.000305176	
7.35596	0.143433	0.000305176	
7.35626	0.141907	0.000457764	
7.35687	0.140076	0.000305176	
7.36023	0.139771	0.000305176	
7.36145	0.140076	0.000305176	
7.36176	0.139771	0.000305176	
7.36084	0.139771	0	
7.36176	0.13855	0.000305176	
7.36145	0.136108	-0.000152588	
7.36115	0.135193	0.000457764	
7.36084	0.135498	0.000305176	
7.36145	0.135193	0.000305176	
7.36145	0.135193	0	
7.36084	0.133362	0	
7.36145	0.131836	0.000915527	
7.36145	0.130615	0.00106812	
7.36145	0.130615	0.000762939	
7.36145	0.13031	0.000305176	
7.36206	0.129395	0.000152588	
7.36511	0.130615	0.000762939	
7.36603	0.128784	0.000457764	
7.36633	0.126343	0.000152588	
7.36603	0.126038	0.000305176	
7.36633	0.125427	0.000305176	
7.36603	0.125427	0.000457764	
7.36603	0.125427	0	
7.36664	0.124207	0.000457764	
7.36603	0.121155	0.000915527	
7.36633	0.120239	0.000915527	
7.36603	0.12085	0.000915527	
7.36664	0.12085	0.000457764	
7.36633	0.119629	0.000457764	
7.36572	0.120544	0.000762939	
7.36633	0.119019	0.000762939	
7.36725	0.116882	-0.000152588	
7.37061	0.115967	-0.000305176	
7.37061	0.115967	0.000152588	
7.37152	0.115967	0.000610352	
7.37061	0.115662	0	
7.37122	0.115051	0.000152588	
7.37091	0.115662	0.000152588	
7.37122	0.114441	0.000762939	
7.37122	0.111694	0.000762939	
7.37152	0.110474	0.000610352	
7.37152	0.111084	0.000305176	
7.37122	0.110779	0.000305176	
7.37091	0.111084	-0.000152588	
7.37152	0.110474	0.000305176	
7.37183	0.109253	-0.000457764	
7.37152	0.106506	0.000762939	
7.37244	0.105896	0.000152588	
7.37457	0.105896	0.000152588	
7.3761	0.105896	0.000152588	
7.3764	0.106201	0.000305176	
7.37549	0.105896	0.000762939	
7.3761	0.106201	0.00137329	
7.3761	0.104675	0.000610352	
7.3761	0.101318	0.000305176	
7.37579	0.100403	0.000457764	
7.3764	0.101318	0.000610352	
7.3761	0.100403	0.000457764	
7.3764	0.100708	0	
7.37579	0.100098	0.000457764	
7.37579	0.100403	0.000152588	
7.3761	0.0991821	0.000152588	
7.3764	0.0964355	0.000305176	
7.37701	0.0961304	0.000457764	
7.37976	0.0961304	0.000610352	
7.38159	0.0964355	0.000915527	
7.38159	0.0958252	0.000762939	
7.38037	0.0964355	0.000762939	
7.38037	0.09552	0.000305176	
7.38098	0.0967407	0.000457764	
7.38098	0.0949097	0.000457764	
7.38129	0.0921631	-0.000152588	
7.38129	0.0909424	-0.000152588	
7.38098	0.0906372	0.000152588	
7.38129	0.090332	0.000457764	
7.38068	0.0915527	-0.000305176	
7.38098	0.0909424	0	
7.38129	0.0912476	0.000457764	
7.38037	0.090332	0.000305176	
7.38159	0.0915527	0.000610352	
7.38159	0.0891113	0.000305176	
7.38434	0.0869751	0	
7.38525	0.0860596	0.000610352	
7.38647	0.0863647	0.000152588	
7.38617	0.0860596	0.000152588	
7.38586	0.0863647	-0.000305176	
7.38556	0.0863647	0	
7.38556	0.0854492	0.000305176	
7.38586	0.0866699	-0.000152588	
7.38647	0.0857544	0.000457764	
7.38586	0.085144	0.000305176	
7.38617	0.0823975	0.000915527	
7.38556	0.0817871	0.0012207	
7.38586	0.0811768	0.000610352	
7.38556	0.0814819	0.000305176	
7.38617	0.0805664	0.000762939	
7.38586	0.0817871	0.0012207	
7.38708	0.0817871	0.000762939	
7.38983	0.0811768	-0.000152588	
7.39014	0.0811768	0.000152588	
7.39166	0.0808716	0.000457764	
7.39105	0.0814819	0.000610352	
7.39075	0.0805664	0	
7.39044	0.078125	0.000762939	
7.39105	0.0772095	0.000610352	
7.39105	0.0772095	0.00106812	
7.39136	0.0772095	0.000457764	
7.39014	0.0769043	0.000305176	
7.39105	0.0765991	0.000457764	
7.39105	0.0772095	0.000152588	
7.39166	0.0775146	0.000457764	
7.39075	0.0775146	-0.000305176	
7.39075	0.0775146	-0.000457764	
7.39105	0.0769043	0	
7.39105	0.0778198	0.000762939	
7.39258	0.0753784	-0.000152588	
7.39441	0.072937	0	
7.39594	0.0717163	0.000305176	
7.39563	0.072937	0.000610352	
7.39594	0.0720215	0.000457764	
7.39624	0.0723267	0.000152588	
7.39563	0.0726318	0.000152588	
7.39532	0.0726318	0.000305176	
7.39594	0.0720215	0	
7.39624	0.0723267	0.000152588	
7.39594	0.0717163	-0.000457764	
7.39563	0.0717163	0.000457764	
7.39532	0.0720215	0	
7.39594	0.0723267	-0.000152588	
7.39563	0.071106	0.000457764	
7.39563	0.067749	0.000305176	
7.39563	0.067749	0.0012207	
7.39685	0.0674438	0.00106812	
7.39929	0.0671387	0.000305176	
7.40112	0.0671387	0.000457764	
7.40143	0.0674438	0.000305176	
7.40112	0.0674438	0.000457764	
7.40082	0.0671387	0.000610352	
7.40112	0.0665283	-0.000152588	
7.40051	0.0668335	0.000305176	
7.40051	0.0668335	0.000152588	
7.40082	0.0674438	0.000610352	
7.40112	0.0668335	0.000457764	
7.40051	0.0668335	0.000305176	
7.40082	0.0668335	0.000457764	
7.40051	0.0671387	0.000915527	
7.40051	0.0662231	0.000305176	
7.40143	0.0640869	0.000762939	
7.40082	0.0628662	0.000457764	
7.40082	0.0619507	0.000915527	
7.40051	0.0622559	0	
7.40173	0.0622559	0	
7.40479	0.0622559	-0.000610352	
7.4057	0.062561	0.000152588	
7.4057	0.0622559	0.000305176	
7.40509	0.0628662	-0.000152588	
7.40601	0.0622559	0.000152588	
7.40601	0.0622559	0.000457764	
7.40631	0.0619507	0.000305176	
7.40601	0.0622559	0.000457764	
7.40631	0.0622559	-0.000152588	
7.40601	0.0628662	0.000152588	
7.4057	0.0616455	0.000305176	
7.40631	0.0619507	0	
7.40601	0.0622559	0.000305176	
7.4057	0.062561	-0.000610352	
7.40601	0.0628662	0.000305176	
7.4054	0.0610352	0.000305176	
7.4057	0.0579834	-0.000152588	
7.40631	0.0576782	0.000457764	
7.40936	0.0576782	0.000305176	
7.41028	0.057373	0.0012207	
7.41089	0.0576782	0.0012207	
7.41058	0.057373	0.000305176	
7.41119	0.057373	0.000305176	
7.4118	0.057373	0.000762939	
7.41028	0.057373	0.000610352	
7.4115	0.0567627	0.000152588	
7.41028	0.0576782	0.000152588	
7.41119	0.0576782	0	
7.41089	0.0570679	0.000457764	
7.41058	0.0576782	0.000305176	
7.41028	0.0570679	0	
7.40997	0.0576782	0.000457764	
7.41119	0.0576782	0.000762939	
7.41058	0.0570679	0.000762939	
7.41058	0.0579834	0.000610352	
7.41058	0.057373	0.000610352	
7.41211	0.057373	0.000457764	
7.41394	0.0585938	0.000610352	
7.41486	0.057373	0.000762939	
7.41608	0.057373	0	
7.41547	0.057373	-0.000305176	
7.41547	0.0576782	0.000152588	
7.41577	0.0567627	0.000610352	
7.41547	0.0531006	0	
7.41547	0.0524902	0.000457764	
7.41577	0.0524902	0.000305176	
7.41577	0.0531006	0.000457764	
7.41608	0.0531006	0.000762939	
7.41516	0.0524902	0.000152588	
7.41608	0.0521851	0.000152588	
7.41577	0.0527954	0.000457764	
7.41486	0.0524902	0.000610352	
7.41608	0.0521851	0.000305176	
7.41577	0.0527954	-0.000457764	
7.41547	0.0527954	0.000152588	
7.41547	0.0524902	0	
7.4176	0.0518799	0.000152588	
7.41852	0.0524902	0.000305176	
7.41974	0.0521851	0	
7.42065	0.0521851	0.00106812	
7.42035	0.0527954	0.0012207	
7.42035	0.0521851	0.000610352	
7.42035	0.0521851	0.000610352	
7.42096	0.0521851	0.000610352	
7.42096	0.0524902	0.000762939	
7.42004	0.0524902	0.000457764	
7.42035	0.0527954	0.000152588	
7.42065	0.0524902	0.000305176	
7.42035	0.0524902	0.000457764	
7.42004	0.0527954	0.000457764	
7.42004	0.0512695	0	
7.42035	0.0527954	0.000610352	
7.42035	0.0524902	0.000762939	
7.42065	0.0531006	0.000762939	
7.42096	0.0524902	0.000915527	
7.42065	0.0521851	0.000305176	
7.42218	0.0537109	0.000915527	
7.42432	0.0527954	0.000762939	
7.42462	0.0524902	0.000762939	
7.42493	0.0527954	-0.000305176	
7.42493	0.0527954	-0.000610352	
7.42523	0.0524902	0.000457764	
7.42432	0.0524902	0.000457764	
7.42493	0.0506592	-0.000152588	
7.42462	0.0482178	0	
7.42523	0.0476074	0.000152588	
7.42493	0.0476074	0.000457764	
7.42493	0.0476074	0.000610352	
7.42523	0.0482178	0.000305176	
7.42493	0.0479126	0.000305176	
7.42584	0.0482178	0.000762939	
7.42493	0.0469971	0	
7.42462	0.0473022	0.000152588	
7.42523	0.0473022	-0.000152588	
7.42584	0.0476074	0.000457764	
7.42523	0.0473022	0	
7.42493	0.0473022	0	
7.42615	0.0473022	0	
7.42889	0.0473022	0	
7.42981	0.0476074	0.00137329	
7.43073	0.0469971	0.00106812	
7.4295	0.0482178	0.000152588	
7.42981	0.0476074	0.000305176	
7.43011	0.0473022	0.000610352	
7.43042	0.0479126	0.000610352	
7.43073	0.0476074	0.000457764	
7.43042	0.0469971	-0.000152588	
7.42981	0.0479126	0.000152588	
7.43011	0.0476074	0.000457764	
7.4292	0.0482178	0.000457764	
7.43042	0.0473022	0.000152588	
7.43011	0.0476074	0.000457764	
7.42981	0.0473022	0.000915527	
7.42981	0.0473022	0.00106812	
7.43011	0.0476074	0.000915527	
7.4295	0.0476074	0.000610352	
7.4295	0.0485229	0.000762939	
7.42981	0.0476074	0.000915527	
7.43134	0.0479126	0.000305176	
7.43408	0.0473022	0	
7.435	0.0476074	-0.000152588	
7.435	0.0476074	0	
7.4353	0.0473022	0.000457764	
7.435	0.0476074	-0.000152588	
7.43469	0.0473022	0.000457764	
7.435	0.0463867	0.000152588	
7.4353	0.0439453	0.000457764	
7.4353	0.0430298	0.000762939	
7.435	0.0430298	0.000152588	
7.4353	0.0427246	0.000610352	
7.435	0.0430298	0.000457764	
7.4353	0.0427246	0.000305176	
7.4353	0.0424194	-0.000152588	
7.435	0.0427246	-0.000152588	
7.435	0.0430298	0.000305176	
7.435	0.0427246	0.000152588	
7.43439	0.0427246	0	
7.435	0.0427246	0.000305176	
7.435	0.0430298	0.000152588	
7.43439	0.0424194	0.00106812	
7.43713	0.0427246	0.0012207	
7.43866	0.0427246	0.000457764	
7.43958	0.0424194	0.000457764	
7.44019	0.0427246	0.000457764	
7.43988	0.0430298	0.000610352	
7.44019	0.043335	0.000457764	
7.44019	0.0424194	0.000152588	
7.44019	0.0421143	0.000457764	
7.44019	0.0430298	0.000305176	
7.43988	0.0427246	0.000152588	
7.43988	0.0421143	0.000152588	
7.44049	0.043335	0.000762939	
7.44019	0.0427246	0.000762939	
7.43988	0.0427246	0.000610352	
7.43958	0.0427246	0.000915527	
7.44019	0.0430298	0.000762939	
7.44019	0.0415039	0.000762939	
7.44049	0.0387573	0.000762939	
7.44019	0.0378418	0.000305176	
7.44019	0.0378418	-0.000457764	
7.43988	0.0378418	-0.000457764	
7.43988	0.0378418	0.000152588	
7.43927	0.0378418	0	
7.44232	0.0378418	-0.000457764	
7.44385	0.0384521	0.000305176	
7.44415	0.0375366	0.000305176	
7.44507	0.0378418	0.000152588	
7.44537	0.0378418	0.000610352	
7.44537	0.0378418	0.000152588	
7.44446	0.0378418	0.000457764	
7.44507	0.0375366	0.000457764	
7.44537	0.0378418	0.000457764	
7.44446	0.0378418	-0.000152588	
7.44476	0.0375366	-0.000457764	
7.44446	0.0378418	0.000305176	
7.44537	0.0378418	0	
7.44537	0.0375366	-0.000457764	
7.44507	0.038147	0	
7.44476	0.0375366	0.000305176	
7.44507	0.0378418	0.000915527	
7.44415	0.0363159	0.00137329	
7.44446	0.0341797	0.000610352	
7.44537	0.0326538	0	
7.44476	0.0326538	0.000762939	
7.44507	0.0326538	0.000610352	
7.44507	0.032959	0.000305176	
7.4469	0.0323486	-0.000152588	
7.44843	0.0323486	0.000457764	
7.44965	0.0326538	0.000610352	
7.44965	0.032959	0.000305176	
7.44995	0.032959	0	
7.44965	0.0332642	0.000457764	
7.45026	0.032959	0.000915527	
7.44995	0.0323486	0.000610352	
7.44995	0.0323486	0.000762939	
7.44995	0.032959	0.000610352	
7.44995	0.0326538	0.000457764	
7.44965	0.032959	0.000762939	
7.44995	0.032959	0.000457764	
7.44965	0.0332642	-0.000152588	
7.44965	0.0311279	-0.000152588	
7.45056	0.0296021	0.000305176	
7.44965	0.0274658	0.000152588	
7.44934	0.027771	-0.000305176	
7.44965	0.0280762	0.000152588	
7.44934	0.0274658	0.000305176	
7.44965	0.027771	0.000305176	
7.44965	0.0280762	0.000610352	
7.45026	0.0283813	0	
7.44965	0.0280762	0.000305176	
7.45026	0.027771	0.00106812	
7.45178	0.027771	0.000305176	
7.45392	0.0274658	-0.000152588	
7.45453	0.0280762	-0.000457764	
7.45483	0.0280762	0	
7.45422	0.0280762	0	
7.45483	0.0280762	0	
7.45514	0.0274658	0	
7.45575	0.0262451	0.000457764	
7.45453	0.0238037	0.00152588	
7.45483	0.0231934	0.000915527	
7.45514	0.022583	0.000762939	
7.45453	0.0231934	0	
7.45514	0.0228882	0.000762939	
7.45453	0.0231934	0.000762939	
7.45544	0.0228882	0.000305176	
7.45483	0.0234985	0.000152588	
7.45544	0.0231934	0.000305176	
7.45483	0.0228882	0.000305176	
7.45544	0.0228882	0.000152588	
7.45483	0.0231934	0.000305176	
7.45453	0.0231934	0.000610352	
7.45453	0.0231934	0.000610352	
7.45483	0.0234985	0.000762939	
7.45453	0.0231934	0.000457764	
7.45514	0.0219727	0.000457764	
7.45514	0.0186157	0.000762939	
7.45605	0.0186157	0.000457764	
7.4585	0.0183105	0.000610352	
7.45911	0.0180054	0.000152588	
7.45941	0.017395	-0.000457764	
7.45972	0.0183105	0.000305176	
7.46002	0.0177002	0	
7.46002	0.0180054	0	
7.46033	0.017395	0.000152588	
7.46033	0.017395	0.000457764	
7.45941	0.0180054	0.000610352	
7.45911	0.0186157	0.000762939	
7.46002	0.017395	0.000152588	
7.45972	0.0183105	0.000762939	
7.45972	0.0180054	0.000457764	
7.45972	0.0170898	0	
7.46033	0.0140381	-0.000305176	
7.45972	0.012207	-0.000305176	
7.46002	0.0125122	0.000152588	
7.46002	0.0131226	0.000457764	
7.45972	0.0131226	-0.000305176	
7.45972	0.0134277	0.000305176	
7.45972	0.0134277	0.000305176	
7.45972	0.0128174	0.000915527	
7.45972	0.0131226	0.00137329	
7.46002	0.0137329	0.000762939	
7.45941	0.0134277	0.000305176	
7.46033	0.0131226	0.000610352	
7.46155	0.0125122	0.000152588	
7.46338	0.0125122	0.000457764	
7.46429	0.0115967	0	
7.4649	0.00915527	0.000457764	
7.4646	0.0088501	0.000457764	
7.4646	0.00823975	0.000152588	
7.46429	0.00854492	0.000152588	
7.4646	0.00793457	0.000457764	
7.46429	0.00762939	0.000915527	
7.4646	0.00823975	0.000610352	
7.46429	0.00762939	0.000915527	
7.46429	0.00854492	0.000457764	
7.46552	0.00793457	0.000305176	
7.4649	0.00854492	0.000610352	
7.4649	0.00793457	0.000457764	
7.4649	0.00854492	-0.000457764	
7.4649	0.0088501	-0.000305176	
7.46552	0.00793457	0.000305176	
7.4646	0.00396729	0.000610352	
7.4646	0.00274658	-0.000305176	
7.46399	0.00335693	0.000152588	
7.4649	0.00335693	0.000152588	
7.4649	0.00274658	0.000457764	
7.4646	0.00335693	0.000762939	
7.4649	0.00335693	0.000457764	
7.46429	0.00335693	0.000457764	
7.4649	0.00305176	0.000762939	
7.4649	0.00335693	-0.000152588	
7.46521	0.00335693	-0.000305176	
7.46582	0.00274658	0	
7.46857	0.00335693	0.000152588	
7.4704	0.00183105	0.000152588	
7.46857	0	0	
7.46948	-0.0012207	0.000610352	
7.46948	-0.0012207	0.000152588	
7.46948	-0.0012207	0.000915527	
7.46948	-0.000915527	0.00137329	
7.46979	-0.00152588	0.000762939	
7.46918	-0.00152588	0.000457764	
7.46948	-0.00152588	0.000152588	
7.46979	-0.0012207	0.000762939	
7.4704	-0.0012207	0.000457764	
7.47009	-0.0012207	0	
7.4707	-0.00213623	0	
7.46918	-0.00244141	0.000305176	
7.46918	-0.00488281	0.000762939	
7.4704	-0.00610352	0	
7.46918	-0.00610352	0.000762939	
7.46979	-0.00671387	0.0012207	
7.4704	-0.00579834	0.000305176	
7.46948	-0.00610352	0.000762939	
7.46948	-0.00610352	0.000610352	
7.46979	-0.00640869	0.000610352	
7.46979	-0.00610352	0.000762939	
7.46979	-0.00640869	0.000305176	
7.46948	-0.00549316	-0.000152588	
7.46979	-0.00671387	-0.000457764	
7.46948	-0.00610352	0.000305176	
7.46918	-0.00701904	0.000457764	
7.47009	-0.0100708	-0.000152588	
7.47162	-0.0106812	-0.000152588	
7.47345	-0.0112915	0.000915527	
7.47406	-0.0112915	0.000152588	
7.47467	-0.0109863	0.000762939	
7.47498	-0.0112915	0.000152588	
7.47467	-0.0106812	0.000305176	
7.47437	-0.0109863	0.000610352	
7.47467	-0.0112915	0	
7.47467	-0.0109863	0.000152588	
7.47437	-0.0119019	-0.000305176	
7.47498	-0.0115967	0.000152588	
7.47467	-0.0109863	0.000152588	
7.47467	-0.0134277	0.000305176	
7.47467	-0.0152588	0.000305176	
7.47437	-0.0161743	0.000152588	
7.47437	-0.0158691	0.00106812	
7.47467	-0.0158691	0.00152588	
7.47437	-0.0158691	0.000610352	
7.47498	-0.0164795	0.000762939	
7.47467	-0.0164795	0.000305176	
7.47437	-0.0158691	0.000915527	
7.47467	-0.0158691	0.000152588	
7.47498	-0.0161743	-0.000305176	
7.47498	-0.0158691	0.000152588	
7.47467	-0.0161743	0.000457764	
7.47498	-0.0158691	0.000762939	
7.47498	-0.0170898	0.000152588	
7.47437	-0.0195313	0.000610352	
7.47437	-0.0216675	0.000915527	
7.47467	-0.0210571	0.000305176	
7.47437	-0.0204468	0.000762939	
7.47406	-0.0213623	0.000762939	
7.47559	-0.020752	0.000915527	
7.47864	-0.020752	0.000457764	
7.47986	-0.0210571	0.000762939	
7.47986	-0.0213623	-0.000457764	
7.47986	-0.020752	-0.000610352	
7.47894	-0.020752	0.000152588	
7.47986	-0.0210571	0.000457764	
7.48047	-0.0210571	0.000305176	
7.48016	-0.0222778	0.000305176	
7.47925	-0.0244141	0	
7.47986	-0.0259399	0.000457764	
7.47986	-0.0259399	0.000762939	
7.48047	-0.0265503	0.000305176	
7.47864	-0.0259399	0	
7.47833	-0.0256348	0.000762939	
7.47955	-0.0259399	0	
7.47955	-0.0259399	0	
7.47986	-0.0256348	-0.000152588	
7.47986	-0.0256348	0.000152588	
7.47894	-0.0259399	0.000305176	
7.48047	-0.0259399	0	
7.47986	-0.0259399	0.000305176	
7.47986	-0.0256348	0.000305176	
7.47894	-0.0274658	0.00106812	
7.47955	-0.0299072	0.00152588	
7.47955	-0.0308228	0.000152588	
7.48016	-0.0311279	0.000457764	
7.48016	-0.0311279	0.000305176	
7.47955	-0.0308228	0.000610352	
7.47955	-0.0311279	0.000457764	
7.47925	-0.0308228	0	
7.47955	-0.0314331	0.000152588	
7.47955	-0.0305176	0.000610352	
7.47925	-0.0308228	0.000457764	
7.47986	-0.0311279	-0.000152588	
7.48108	-0.0308228	0.000457764	
7.48383	-0.0305176	0.000457764	
7.48444	-0.0311279	0.000457764	
7.48535	-0.0308228	0.000762939	
7.48474	-0.0308228	0.000762939	
7.48413	-0.0320435	0.000610352	
7.48413	-0.0341797	0.000915527	
7.48444	-0.0357056	0.000305176	
7.48444	-0.0357056	-0.000305176	
7.48444	-0.0357056	-0.000762939	
7.48444	-0.0354004	0.000305176	
7.48444	-0.0354004	0.000305176	
7.48474	-0.0360107	0	
7.48474	-0.0357056	-0.000152588	
7.48505	-0.0363159	0.000152588	
7.48474	-0.0357056	0.000610352	
7.48413	-0.0357056	0.000915527	
7.48444	-0.0350952	0.000305176	
7.48474	-0.0354004	0.000305176	
7.48444	-0.0360107	0.000762939	
7.48413	-0.0350952	0	
7.48444	-0.0360107	-0.000305176	
7.48474	-0.0357056	-0.000152588	
7.48413	-0.0372314	0.000305176	
7.48474	-0.039978	0.000152588	
7.48413	-0.0408936	0	
7.48444	-0.0405884	0.000152588	
7.48535	-0.0408936	0.000152588	
7.48413	-0.0405884	0.00106812	
7.48474	-0.0402832	0.0012207	
7.48474	-0.0405884	0.000762939	
7.48505	-0.0405884	0.000457764	
7.48444	-0.0411987	0.000305176	
7.48444	-0.0408936	0.000457764	
7.48413	-0.0402832	0.000305176	
7.48505	-0.0402832	0	
7.48413	-0.0415039	0.000152588	
7.48383	-0.0411987	0.000457764	
7.48596	-0.0396729	0.000305176	
7.4881	-0.0411987	0.000152588	
7.48932	-0.0402832	0.000915527	
7.48962	-0.0405884	0.00106812	
7.48962	-0.0427246	0.000305176	
7.48932	-0.0442505	0.000457764	
7.48932	-0.0454712	0.000762939	
7.48932	-0.0457764	0.000915527	
7.48962	-0.045166	0.000762939	
7.48932	-0.0457764	0.000457764	
7.48993	-0.0457764	-0.000152588	
7.48932	-0.0454712	-0.000457764	
7.48962	-0.0457764	0.000152588	
7.48993	-0.0448608	0.000457764	
7.48962	-0.0454712	-0.000305176	
7.49023	-0.0457764	0.000305176	
7.48871	-0.045166	0.000457764	
7.48962	-0.0457764	0.000457764	
7.49023	-0.0454712	0.000610352	
7.48932	-0.0457764	0.000305176	
7.48932	-0.0457764	0.000762939	
7.48993	-0.0454712	0.000457764	
7.48962	-0.0457764	-0.000152588	
7.48993	-0.0457764	0	
7.48932	-0.0457764	-0.000152588	
7.48932	-0.0454712	0.000152588	
7.48901	-0.0454712	0	
7.49023	-0.0473022	0	
7.48962	-0.0494385	0	
7.48962	-0.0506592	0	
7.48901	-0.0506592	0.0012207	
7.48962	-0.0500488	0.0012207	
7.48901	-0.0497437	0.000457764	
7.48932	-0.0500488	0.000915527	
7.48962	-0.050354	0.000457764	
7.48962	-0.050354	0.000457764	
7.48932	-0.0509644	0.000457764	
7.48962	-0.050354	0	
7.48932	-0.050354	0.000457764	
7.48962	-0.0506592	0.000305176	
7.49023	-0.050354	0.000305176	
7.49115	-0.0500488	0	
7.49268	-0.0509644	0.000457764	
7.4942	-0.050354	0.000457764	
7.49451	-0.0506592	0.000305176	
7.49451	-0.0509644	0.000305176	
7.49451	-0.0497437	0.000762939	
7.49451	-0.0506592	0.000152588	
7.49451	-0.0506592	0.000610352	
7.4939	-0.0506592	0.000152588	
7.49512	-0.0509644	-0.000457764	
7.49451	-0.0506592	-0.000457764	
7.49451	-0.0521851	0.000457764	
7.49542	-0.0543213	0.000457764	
7.49451	-0.0552368	0	
7.4939	-0.0552368	0.000152588	
7.49451	-0.0549316	0.000305176	
7.4939	-0.055542	0.000457764	
7.49451	-0.055542	0.000762939	
7.49512	-0.0552368	-0.000152588	
7.4942	-0.0552368	0.000305176	
7.49512	-0.0549316	0.000762939	
7.49481	-0.0558472	0.000152588	
7.49451	-0.0561523	-0.000305176	
7.4942	-0.0552368	-0.000305176	
7.49451	-0.0558472	0.000152588	
7.4939	-0.055542	-0.000152588	
7.4939	-0.0549316	0.000152588	
7.4942	-0.0558472	0.000457764	
7.4942	-0.055542	0.000152588	
7.49451	-0.0546265	0.0012207	
7.49451	-0.0549316	0.00152588	
7.4942	-0.055542	0.000610352	
7.4939	-0.0552368	0.000305176	
7.4942	-0.0558472	0.000610352	
7.4942	-0.0558472	0.000457764	
7.49451	-0.0552368	0.000152588	
7.49481	-0.0561523	-0.000152588	
7.49451	-0.0558472	0.000305176	
7.4942	-0.0552368	0.000305176	
7.4942	-0.0543213	0.000305176	
7.49512	-0.0552368	0.000305176	
7.49451	-0.055542	0.000305176	
7.4939	-0.0564575	0.00106812	
7.49451	-0.0598145	0.000915527	
7.4942	-0.0601196	0.000610352	
7.49451	-0.0601196	0.000305176	
7.4942	-0.0604248	0.000457764	
7.49451	-0.06073	0.000457764	
7.4942	-0.0595093	0.000305176	
7.49573	-0.0598145	-0.000305176	
7.49786	-0.0604248	-0.000305176	
7.49847	-0.0595093	0.000152588	
7.49939	-0.0601196	0.000457764	
7.49969	-0.06073	0	
7.49939	-0.0604248	0.000610352	
7.49908	-0.0604248	0.000457764	
7.49878	-0.0601196	0.000305176	
7.49939	-0.0601196	0.000762939	
7.49908	-0.0601196	0.000152588	
7.49908	-0.0601196	0.000610352	
7.49939	-0.0601196	0.000305176	
7.49878	-0.0601196	0.000305176	
7.49908	-0.0604248	0.000152588	
7.49908	-0.0601196	-0.000305176	
7.49908	-0.06073	-0.000152588	
7.49908	-0.06073	0.000152588	
7.49908	-0.06073	-0.000152588	
7.49939	-0.0595093	0.000457764	
7.49939	-0.0604248	0.000305176	
7.49908	-0.0604248	0.00152588	
7.49969	-0.0601196	0.00137329	
7.49908	-0.0598145	0.000152588	
7.49939	-0.0598145	0.000610352	
7.49939	-0.06073	0.000457764	
7.49969	-0.0604248	0.000305176	
7.49878	-0.06073	0.000152588	
7.49908	-0.0604248	0.000457764	
7.49878	-0.0601196	0	
7.49969	-0.06073	0.000457764	
7.49939	-0.0604248	0.000305176	
7.49969	-0.0601196	0.000152588	
7.49939	-0.06073	0.000610352	
7.49969	-0.0601196	0.000915527	
7.49939	-0.0604248	0.000305176	
7.49908	-0.0601196	0.000305176	
7.49939	-0.0601196	0.000762939	
7.49939	-0.0610352	0.000762939	
7.49969	-0.06073	0.000915527	
7.49969	-0.0604248	0.000152588	
7.49908	-0.0610352	-0.000305176	
7.49939	-0.0601196	-0.000610352	
7.49939	-0.0604248	0	
7.49908	-0.0604248	0.000762939	
7.49878	-0.06073	-0.000152588	
7.49908	-0.0604248	0.000152588	
7.49908	-0.0601196	0	
7.49939	-0.0604248	0.000915527	
7.50031	-0.06073	0.000610352	
7.49908	-0.0601196	0.000152588	
7.49878	-0.0601196	0.000305176	
7.49878	-0.0604248	0.000305176	
7.5	-0.0604248	0.000457764	
7.49969	-0.0588989	-0.000152588	
7.49969	-0.0564575	0	
7.49908	-0.0561523	0.000152588	
7.49939	-0.0549316	0.000152588	
7.49908	-0.0546265	-0.000457764	
7.49969	-0.055542	0.000305176	
7.49908	-0.0552368	0	
7.49969	-0.0549316	0.00106812	
7.49908	-0.055542	0.000915527	
7.49969	-0.0552368	0.000610352	
7.49878	-0.055542	0.000457764	
7.49969	-0.055542	0.000762939	
7.49908	-0.0558472	0.000915527	
7.50092	-0.055542	0.000457764	
7.50336	-0.0552368	0.000152588	
7.50427	-0.0546265	0	
7.50366	-0.0561523	0.000457764	
7.50366	-0.055542	0.000152588	
7.50366	-0.0543213	0.000152588	
7.50427	-0.0512695	0.000305176	
7.50458	-0.0497437	0.0012207	
7.50336	-0.0506592	0.000457764	
7.50397	-0.0506592	0.000610352	
7.50458	-0.050354	0.000305176	
7.50397	-0.050354	0.000305176	
7.50427	-0.050354	0.000762939	
7.50458	-0.050354	0.000457764	
7.50488	-0.0506592	-0.000457764	
7.50397	-0.0506592	-0.000305176	
7.50427	-0.0509644	0.000152588	
7.50427	-0.0494385	0.000457764	
7.50397	-0.0466919	-0.000305176	
7.50427	-0.0460815	0.000152588	
7.50427	-0.045166	0.000457764	
7.50488	-0.0460815	0.000305176	
7.50397	-0.0454712	0.000762939	
7.50397	-0.0463867	0.000152588	
7.50427	-0.0457764	0.000457764	
7.50366	-0.0448608	0.000305176	
7.50427	-0.0454712	0.000152588	
7.50397	-0.0445557	-0.000152588	
7.50458	-0.0418091	0.000152588	
7.50397	-0.0408936	0.000610352	
7.50488	-0.0411987	0.000152588	
7.50275	-0.0405884	0	
7.50397	-0.0405884	0.000305176	
7.50427	-0.0408936	0.000152588	
7.50458	-0.0405884	0.00137329	
7.50427	-0.0390625	0.00106812	
7.50336	-0.0363159	0.000915527	
7.50458	-0.0360107	0.000457764	
7.50397	-0.0357056	0.000762939	
7.50366	-0.0350952	0.000915527	
7.50458	-0.0357056	0.000457764	
7.50397	-0.0354004	0.000152588	
7.50427	-0.0338745	0.000305176	
7.50458	-0.0317383	0.000457764	
7.50397	-0.0308228	0	
7.50427	-0.0308228	0	
7.50397	-0.0305176	0.000305176	
7.50397	-0.0311279	0.00137329	
7.50458	-0.0308228	0.000762939	
7.50427	-0.0292969	0.000610352	
7.50427	-0.0271606	0.000762939	
7.50397	-0.0259399	0.000762939	
7.50397	-0.0259399	0.00106812	
7.50427	-0.0259399	0.000457764	
7.50397	-0.0256348	0.000152588	
7.50397	-0.0241089	-0.000610352	
7.50397	-0.0216675	0.000305176	
7.50427	-0.0213623	0.000152588	
7.50397	-0.0201416	-0.000152588	
7.50397	-0.020752	0.000305176	
7.50427	-0.0195313	0.000457764	
7.50458	-0.0170898	0.000457764	
7.50458	-0.0161743	0.000762939	
7.50488	-0.015564	0	
7.50427	-0.0158691	0	
7.50427	-0.0158691	0.000305176	
7.50397	-0.0152588	0.000305176	
7.50366	-0.0115967	-0.000152588	
7.50397	-0.0109863	-0.000152588	
7.50366	-0.0109863	0.000152588	
7.50488	-0.0115967	0.000305176	
7.50427	-0.0088501	0.000305176	
7.50458	-0.00701904	0.000152588	
7.50427	-0.00640869	0	
7.50427	-0.00579834	0.00137329	
7.50397	-0.00579834	0.00137329	
7.50458	-0.00457764	0.000762939	
7.50366	-0.00213623	0.000610352	
7.50458	-0.00152588	0.000305176	
7.50458	-0.000915527	0.000915527	
7.50458	0	0.000305176	
7.50397	0.00274658	-0.000152588	
7.50427	0.00335693	0.000610352	
7.50366	0.00305176	0.000457764	
7.50488	0.00305176	0.000457764	
7.50458	0.00427246	-0.000152588	
7.50488	0.00732422	0.000305176	
7.50488	0.00823975	0.000915527	
7.50336	0.00793457	0.000610352	
7.50427	0.00946045	0.000610352	
7.50427	0.0128174	0.0012207	
7.50427	0.0128174	0.000610352	
7.50397	0.0131226	0.000762939	
7.50397	0.0131226	0.000457764	
7.50427	0.0140381	-0.000457764	
7.50397	0.0170898	-0.000457764	
7.50427	0.0180054	0.000610352	
7.50519	0.0183105	0	
7.50397	0.0195313	-0.000152588	
7.50458	0.0210571	0.000305176	
7.50427	0.0231934	0.000610352	
7.50427	0.0234985	0.000457764	
7.50427	0.0244141	0.000305176	
7.50427	0.0271606	0.000305176	
7.50397	0.0283813	0.000152588	
7.50366	0.027771	0.000915527	
7.50397	0.0286865	-0.000152588	
7.50397	0.0323486	-0.000305176	
7.50366	0.0323486	-0.000152588	
7.50427	0.0323486	0.000152588	
7.50366	0.0341797	0	
7.50488	0.0369263	-0.000152588	
7.50366	0.0372314	0	
7.50458	0.038147	0.000610352	
7.50427	0.0396729	0.00106812	
7.50397	0.0418091	0.000915527	
7.50366	0.0427246	0.000457764	
7.50427	0.0424194	0.000762939	
7.50427	0.0439453	0.000152588	
7.50366	0.0463867	0.000305176	
7.50427	0.0469971	0.000457764	
7.50397	0.0491333	0.000305176	
7.50305	0.0518799	0.000610352	
7.50427	0.0521851	0.000610352	
7.50427	0.0527954	0.000305176	
7.50427	0.0537109	0.000152588	
7.50458	0.0558472	0.000457764	
7.50397	0.057373	0.00106812	
7.50397	0.0579834	0.000610352	
7.50366	0.0588989	0.000610352	
7.50427	0.0616455	0.000457764	
7.50427	0.062561	0.000762939	
7.50488	0.0622559	0.000610352	
7.50366	0.0631714	0.000152588	
7.50366	0.0665283	-0.000152588	
7.50366	0.0668335	-0.000305176	
7.50427	0.0686646	0.000305176	
7.50427	0.071106	0	
7.50488	0.0720215	-0.000152588	
7.50427	0.0717163	0.000152588	
7.50397	0.0738525	0.000305176	
7.50427	0.0762939	0.000152588	
7.50397	0.0772095	0.000915527	
7.50458	0.0787354	0.000305176	
7.50397	0.0802612	0	
7.50458	0.0814819	0.000457764	
7.50427	0.0808716	0.000152588	
7.50366	0.0827026	-0.000152588	
7.50427	0.0854492	0	
7.50397	0.0860596	0.000305176	
7.50458	0.0857544	0.000305176	
7.50366	0.0878906	0	
7.50366	0.0900269	0.000152588	
7.50488	0.0909424	0.000305176	
7.50458	0.0927734	0.00106812	
7.50458	0.09552	0.0012207	
7.50427	0.0961304	0.000457764	
7.50397	0.0967407	0.000457764	
7.50427	0.0970459	0.000610352	
7.50427	0.0997925	0.000457764	
7.50427	0.100403	0.000457764	
7.50366	0.101318	0	
7.50397	0.102539	0.000610352	
7.50366	0.105286	0.000305176	
7.50427	0.105591	0.000152588	
7.50397	0.107117	0.000305176	
7.50427	0.110168	0.000762939	
7.50458	0.111084	0.0012207	
7.50366	0.110474	0.000457764	
7.50427	0.112	0.000762939	
7.50427	0.115051	0.0012207	
7.50427	0.115662	0.000457764	
7.50366	0.115967	0.00106812	
7.50427	0.117493	0.000457764	
7.50366	0.119629	-0.000305176	
7.50427	0.120544	-0.000762939	
7.50458	0.12146	0.000152588	
7.50458	0.124512	0.000305176	
7.50366	0.125122	-0.000152588	
7.50488	0.125427	0.000152588	
7.50427	0.127258	0.000610352	
7.50427	0.129395	0.000305176	
7.50458	0.13031	0.000762939	
7.50397	0.13031	-0.000305176	
7.50458	0.132141	0.000152588	
7.50397	0.134583	0.000610352	
7.50458	0.136108	0	
7.50366	0.135498	0	
7.50397	0.136108	-0.000152588	
7.50488	0.13916	0.000152588	
7.50397	0.140076	0	
7.50397	0.140381	0.000152588	
7.50427	0.141907	-0.000152588	
7.50305	0.144348	0.000305176	
7.50061	0.145264	0.000762939	
7.49939	0.145569	0.0012207	
7.49939	0.147095	0.000457764	
7.49878	0.148621	0.000457764	
7.49908	0.150146	0.000152588	
7.49939	0.149536	0.000305176	
7.49969	0.151062	0	
7.49908	0.153198	0.000152588	
7.49969	0.155029	0.000305176	
7.49939	0.154724	0.000457764	
7.49939	0.15625	0.000610352	
7.5	0.158691	0	
7.49939	0.159912	0.000457764	
7.49939	0.160217	0.000762939	
7.49908	0.160522	0.000457764	
7.49908	0.163879	0.000457764	
7.49878	0.16449	0.000610352	
7.49969	0.16449	0.000610352	
7.49939	0.166626	0.000762939	
7.49908	0.168457	0.000762939	
7.5	0.169067	-0.000305176	
7.49939	0.168762	-0.000762939	
7.49878	0.169373	0.000610352	
7.49878	0.170898	0	
7.49969	0.173035	0.000152588	
7.49878	0.17395	0	
7.49908	0.174561	0.000610352	
7.49939	0.176086	0.000305176	
7.49908	0.178528	0.000305176	
7.49908	0.178833	0.000457764	
7.49908	0.179443	0.000152588	
7.49878	0.179138	0.000610352	
7.49939	0.180054	0.000152588	
7.49908	0.183105	-0.000305176	
7.49878	0.184326	0	
7.49939	0.184326	0.000152588	
7.49969	0.184937	0	
7.5	0.185242	0.000305176	
7.49908	0.187988	0.000305176	
7.49908	0.188293	0.000305176	
7.5	0.189514	0.00137329	
7.49908	0.189209	0.000915527	
7.49969	0.190735	0.000457764	
7.49939	0.193176	0.000457764	
7.49969	0.193481	0.000610352	
7.49939	0.194397	0.000610352	
7.49878	0.193787	0.000457764	
7.50031	0.195313	0.000152588	
7.49969	0.198059	0.000305176	
7.49969	0.198669	0.000762939	
7.49878	0.198669	0.000152588	
7.49969	0.198364	0.000152588	
7.49969	0.198975	0.000762939	
7.49908	0.200806	0.0012207	
7.5	0.202332	0.000610352	
7.49939	0.203857	0.000457764	
7.49969	0.203857	0.000152588	
7.49939	0.203857	0.000457764	
7.49939	0.203552	0.000610352	
7.49908	0.205688	0.000457764	
7.49878	0.208435	-0.000610352	
7.50031	0.20813	-0.000457764	
7.49939	0.20874	0.000305176	
7.49939	0.20874	0.000152588	
7.49908	0.209656	0.000152588	
7.49878	0.209351	0.000152588	
7.49908	0.213623	0.000152588	
7.49969	0.213623	0.000457764	
7.49817	0.213928	0.000610352	
7.49542	0.214233	0.000457764	
7.49481	0.213318	0.000610352	
7.49512	0.213623	0.000305176	
7.4942	0.215454	0.000152588	
7.4942	0.217896	-0.000457764	
7.49451	0.218506	0.000305176	
7.49481	0.218506	0.000152588	
7.49451	0.218201	0	
7.4939	0.218506	-0.000152588	
7.49481	0.219116	0.000152588	
7.49451	0.218506	0.000457764	
7.49451	0.220337	0.0012207	
7.4939	0.222778	0.00106812	
7.4942	0.223083	0.000762939	
7.4942	0.223389	0.000457764	
7.49512	0.223083	0.000457764	
7.49359	0.223694	0.000610352	
7.49451	0.223694	0.000457764	
7.4942	0.222778	0	
7.49481	0.223389	0.000610352	
7.4939	0.224609	0.000457764	
7.49451	0.227966	0.000457764	
7.49451	0.227966	0	
7.4942	0.229187	0.000457764	
7.49451	0.228271	0.0012207	
7.4939	0.228577	0.000762939	
7.49481	0.228271	0.000915527	
7.4942	0.228271	0.000762939	
7.49451	0.228577	0.000457764	
7.49512	0.228577	0.000762939	
7.4942	0.229187	0.000152588	
7.49451	0.230408	-0.000610352	
7.49451	0.232849	-0.000610352	
7.49512	0.233154	0	
7.49451	0.233765	0	
7.49451	0.233459	0.000152588	
7.49481	0.233459	0.000457764	
7.49481	0.233765	0.000610352	
7.49451	0.233154	0.000305176	
7.4942	0.232849	0.000762939	
7.49512	0.233459	0.000152588	
7.49481	0.233459	0.000457764	
7.4939	0.23407	0.000152588	
7.49512	0.233154	0.000152588	
7.4942	0.233154	-0.000457764	
7.49359	0.233154	0	
7.4939	0.233459	0	
7.4942	0.233154	0.000152588	
7.49298	0.23468	0.000152588	
7.49054	0.237122	0.000457764	
7.48993	0.238037	0.000610352	
7.48993	0.238342	0.0012207	
7.48962	0.238037	0.0012207	
7.48962	0.237122	0.000457764	
7.48993	0.238037	0.000610352	
7.48962	0.238037	0.000305176	
7.48993	0.238342	0.000915527	
7.48993	0.238342	0.000152588	
7.48901	0.238342	0.000305176	
7.48871	0.238342	0.000457764	
7.48962	0.237732	0.000457764	
7.48962	0.238342	0.000305176	
7.48932	0.238342	0.000610352	
7.49023	0.238647	0.000457764	
7.48901	0.238342	0.000915527	
7.48993	0.238037	0.000457764	
7.48993	0.238037	0.000762939	
7.48962	0.238037	0.000915527	
7.48993	0.238342	0.000610352	
7.48962	0.238342	0.000915527	
7.48871	0.237732	0.000152588	
7.48901	0.238037	-0.000305176	
7.48932	0.238037	-0.000457764	
7.48932	0.238037	0.000305176	
7.48932	0.237732	0.000152588	
7.49023	0.238037	0.000305176	
7.48932	0.238037	0.000610352	
7.48962	0.238342	0.000762939	
7.48932	0.238037	0.000305176	
7.48932	0.238342	0.000457764	
7.48993	0.238037	0	
7.48993	0.237732	0.000305176	
7.48871	0.237732	0.000152588	
7.48962	0.238342	0	
7.49084	0.237732	-0.000457764	
7.48901	0.238037	0.000152588	
7.48962	0.237732	0.000305176	
7.48932	0.238342	-0.000305176	
7.48901	0.237122	-0.000152588	
7.48566	0.233459	0.000457764	
7.48444	0.234375	0.000457764	
7.48474	0.233154	0.000915527	
7.48474	0.233459	0.00106812	
7.48505	0.233459	0.000457764	
7.48444	0.233459	0.000762939	
7.48383	0.233765	0.000305176	
7.48413	0.233154	0.000457764	
7.48474	0.233765	0.000152588	
7.48444	0.233459	0.000610352	
7.48413	0.232849	0.000610352	
7.48474	0.233459	0.000457764	
7.48535	0.232849	0.000305176	
7.48535	0.233459	0.000457764	
7.48444	0.232849	0.000457764	
7.48474	0.233154	0.0012207	
7.48474	0.231323	0.000610352	
7.48413	0.229492	0.000610352	
7.48474	0.228882	0.000610352	
7.48505	0.228577	0.000610352	
7.48413	0.229187	0.000610352	
7.48474	0.229187	0.000152588	
7.48505	0.228577	-0.000457764	
7.48413	0.228271	-0.000152588	
7.48474	0.228271	0.000457764	
7.48474	0.228271	0.000610352	
7.48444	0.228577	-0.000152588	
7.48444	0.228271	-0.000152588	
7.48383	0.227051	0.000305176	
7.48505	0.224915	0.000305176	
7.48383	0.223389	0.000915527	
7.48535	0.223083	0.000457764	
7.48474	0.224304	0.000152588	
7.48535	0.223694	0.000152588	
7.48322	0.223694	0.000457764	
7.47986	0.223694	-0.000305176	
7.47894	0.223694	-0.000152588	
7.47925	0.223389	0.000305176	
7.47925	0.221863	0.000305176	
7.47955	0.219727	0	
7.47925	0.218201	0.000152588	
7.47894	0.218506	0.000457764	
7.47955	0.218201	0.0012207	
7.47955	0.218506	0.000762939	
7.47986	0.218811	0.000152588	
7.48016	0.217896	0.000610352	
7.47955	0.217285	0	
7.47955	0.214844	0.000457764	
7.47955	0.213318	0.000457764	
7.48016	0.213623	0.000305176	
7.47894	0.213623	0.000457764	
7.48016	0.213623	0.000305176	
7.47986	0.214233	0.000457764	
7.47986	0.213623	0.000457764	
7.47986	0.213318	0.000915527	
7.47894	0.210266	0.00152588	
7.47925	0.209351	0.000762939	
7.47925	0.209045	0.000457764	
7.47955	0.208435	0.000762939	
7.47925	0.20813	0.000457764	
7.47925	0.209045	0.000610352	
7.48047	0.20813	0.000610352	
7.47894	0.205078	-0.000152588	
7.47894	0.204468	-0.000457764	
7.48047	0.204468	0	
7.47894	0.203857	0.000152588	
7.47803	0.203857	0.000305176	
7.47589	0.202332	0	
7.47559	0.199585	0.000457764	
7.47498	0.198364	0.000152588	
7.47437	0.19928	0.000305176	
7.47467	0.198975	0.000457764	
7.47498	0.198975	0.000457764	
7.47498	0.198669	0.000305176	
7.47437	0.197449	-0.000152588	
7.47467	0.194397	-0.000457764	
7.47437	0.193481	-0.000610352	
7.47559	0.194092	0	
7.47467	0.193787	0.000152588	
7.47406	0.194397	-0.000152588	
7.47467	0.192871	0.000152588	
7.47437	0.190125	0.000457764	
7.47498	0.188904	0.00152588	
7.47437	0.188599	0.000610352	
7.47528	0.189514	0.000915527	
7.47437	0.189209	0.000762939	
7.47406	0.187073	0	
7.47528	0.184631	0.000305176	
7.47498	0.184631	0	
7.47437	0.184021	0	
7.47437	0.184326	0.000152588	
7.47467	0.183105	0.000610352	
7.47437	0.179749	0.000457764	
7.47437	0.179138	0.000305176	
7.47467	0.179138	0.000457764	
7.47345	0.178833	0.0012207	
7.4707	0.179138	0.000305176	
7.46979	0.177917	0.000457764	
7.46948	0.176086	0.000457764	
7.46918	0.174561	0.000457764	
7.46948	0.174866	0.000762939	
7.46948	0.174866	0.000610352	
7.46948	0.172424	-0.000457764	
7.46948	0.170288	-0.000457764	
7.46979	0.169678	0.000457764	
7.47009	0.168762	0	
7.46887	0.168762	0	
7.46979	0.168152	0.000305176	
7.4707	0.164795	0.000610352	
7.46948	0.164795	0.000305176	
7.46979	0.164185	0.000457764	
7.46979	0.16449	0.000457764	
7.46948	0.1651	0.000305176	
7.46918	0.163269	0.000457764	
7.46979	0.160828	-0.000152588	
7.46979	0.159912	-0.000152588	
7.46918	0.159912	-0.000305176	
7.46979	0.160217	0.000152588	
7.46948	0.158691	0.000152588	
7.47009	0.155945	-0.000152588	
7.47009	0.155334	0	
7.46979	0.154419	0.000457764	
7.46796	0.155029	0.00106812	
7.46613	0.153503	0.000915527	
7.46521	0.150757	0.000305176	
7.4649	0.149841	0.000610352	
7.46429	0.149536	0.000305176	
7.4649	0.150757	0.000305176	
7.46429	0.148926	0.000457764	
7.4646	0.146484	0	
7.46429	0.144653	0.000610352	
7.46429	0.144958	0.000457764	
7.4646	0.144958	0.000305176	
7.46399	0.143738	0.000305176	
7.4649	0.140991	0.000457764	
7.4649	0.139771	0.00106812	
7.4646	0.139771	0.000610352	
7.4646	0.140076	0.000610352	
7.46521	0.139465	0.000152588	
7.4646	0.136108	0.000305176	
7.46521	0.135498	0.000457764	
7.4646	0.134583	0.000457764	
7.46429	0.135498	-0.000305176	
7.46429	0.133972	-0.000305176	
7.4646	0.13092	0.000457764	
7.4649	0.130005	0.000305176	
7.46368	0.130005	0.000305176	
7.46094	0.130615	0.000305176	
7.45941	0.128784	0.000305176	
7.46002	0.126648	0.000305176	
7.45941	0.124817	0.000457764	
7.45972	0.125122	0.000305176	
7.45941	0.126038	0.000457764	
7.46002	0.123901	0.000152588	
7.46002	0.12207	0.000152588	
7.45941	0.119934	-0.000457764	
7.46002	0.119934	-0.000152588	
7.46033	0.120544	0.000610352	
7.45972	0.119324	0.000305176	
7.46002	0.117188	-0.000152588	
7.45972	0.115967	-0.000152588	
7.45911	0.115662	0.000305176	
7.45972	0.115662	0.000915527	
7.45911	0.114136	0.000915527	
7.45941	0.112	0.000305176	
7.46002	0.110779	0.000610352	
7.45972	0.110779	0.000305176	
7.45972	0.111084	0.000457764	
7.45972	0.109253	0.000152588	
7.45911	0.106506	0.000152588	
7.45575	0.105896	0.000457764	
7.45544	0.105591	0.000762939	
7.45544	0.105896	0.000305176	
7.45453	0.10437	0.000305176	
7.45453	0.101929	0.000762939	
7.45514	0.101318	0.00106812	
7.45453	0.101013	0.000305176	
7.45483	0.100708	0.000762939	
7.45422	0.100098	0.000762939	
7.45544	0.0970459	0.000457764	
7.45483	0.0958252	0.000457764	
7.45453	0.0961304	0.000152588	
7.45422	0.09552	-0.000457764	
7.45514	0.0964355	-0.000152588	
7.45483	0.0942993	0.000610352	
7.45453	0.0918579	0	
7.45514	0.0909424	0.000152588	
7.45544	0.0906372	0.000305176	
7.45453	0.0909424	0.000610352	
7.45422	0.090332	0.000305176	
7.45483	0.0869751	0.000457764	
7.45453	0.0860596	0.000152588	
7.45056	0.0860596	0.000152588	
7.44995	0.0860596	0	
7.44965	0.0860596	0.000152588	
7.44995	0.0845337	-0.000152588	
7.44965	0.0820923	0	
7.45026	0.0808716	0.000305176	
7.45026	0.0814819	-0.000152588	
7.44965	0.0811768	0.000152588	
7.44934	0.0817871	0.000152588	
7.44934	0.0805664	0.000915527	
7.44934	0.078125	0.000915527	
7.44904	0.0772095	0.00106812	
7.44965	0.0769043	0.000305176	
7.44995	0.0765991	0.000610352	
7.44995	0.0762939	0.000305176	
7.44995	0.0726318	0.000762939	
7.44965	0.0720215	0.000305176	
7.45026	0.0720215	0.000152588	
7.44965	0.0717163	0.000305176	
7.44873	0.072937	0.000152588	
7.44629	0.071106	0.000457764	
7.44476	0.0680542	0.000305176	
7.44446	0.0668335	0.000915527	
7.44446	0.0671387	0.00137329	
7.44507	0.0674438	0.000305176	
7.44476	0.0668335	0.000915527	
7.44476	0.0674438	0.000457764	
7.44507	0.0662231	0.000457764	
7.44507	0.0634766	0.000457764	
7.44568	0.062561	0.000152588	
7.44476	0.0622559	-0.000610352	
7.44446	0.0622559	-0.000152588	
7.44476	0.0622559	0.000305176	
7.44476	0.0613403	0.000305176	
7.44476	0.0582886	0.000457764	
7.44476	0.057373	0.000305176	
7.44507	0.0570679	0.000305176	
7.44537	0.0576782	0.000305176	
7.44293	0.057373	0.000457764	
7.4408	0.057373	0.000152588	
7.44049	0.0561523	-0.000152588	
7.44019	0.0534058	0.000305176	
7.44019	0.0527954	-0.000152588	
7.43988	0.0524902	-0.000152588	
7.44019	0.0531006	-0.000305176	
7.44019	0.0518799	0.000152588	
7.43927	0.0531006	0	
7.43958	0.0512695	0.000305176	
7.44019	0.0494385	0.000152588	
7.43958	0.0482178	0.000610352	
7.43958	0.0479126	0.0012207	
7.43896	0.0476074	0.000915527	
7.44019	0.0473022	0.000152588	
7.43988	0.0476074	0.000762939	
7.43988	0.0457764	0.000152588	
7.44049	0.0436401	0.000457764	
7.43866	0.0427246	0.000152588	
7.43591	0.0421143	0.000457764	
7.435	0.0430298	0.000762939	
7.43561	0.0427246	0.000610352	
7.43469	0.0427246	0.000457764	
7.435	0.0411987	0.000610352	
7.435	0.0390625	0.000762939	
7.43469	0.0378418	0.0012207	
7.43408	0.0375366	0.000457764	
7.4353	0.038147	0.000610352	
7.43469	0.0378418	0.000610352	
7.4353	0.0375366	0.000610352	
7.435	0.0375366	0.000305176	
7.43591	0.0369263	0.000305176	
7.43561	0.0338745	-0.000305176	
7.43469	0.032959	0	
7.43469	0.032959	0.000457764	
7.43561	0.032959	0.000152588	
7.43408	0.0332642	0	
7.43073	0.0332642	0.000305176	
7.43073	0.0332642	0.000152588	
7.43011	0.0326538	0.000305176	
7.43042	0.0311279	0.000457764	
7.42981	0.0296021	0.000152588	
7.4295	0.027771	0.000610352	
7.43011	0.0280762	0.000457764	
7.43011	0.027771	0.000457764	
7.43011	0.0280762	-0.000457764	
7.42981	0.0274658	0.000152588	
7.42981	0.0274658	0.000305176	
7.43042	0.027771	0.000152588	
7.43042	0.0268555	0.000457764	
7.42981	0.0241089	0.000610352	
7.42981	0.0238037	0.000610352	
7.4292	0.022583	0.00106812	
7.42645	0.0234985	0.000762939	
7.42462	0.0231934	0.000152588	
7.42493	0.0231934	0.000610352	
7.42523	0.022583	0.000457764	
7.42554	0.0238037	0.000457764	
7.42462	0.0228882	-0.000152588	
7.42615	0.0213623	0.000152588	
7.42523	0.0195313	0.000305176	
7.42523	0.0189209	0.000305176	
7.42462	0.0183105	0.000457764	
7.42554	0.0180054	0.000610352	
7.42523	0.0183105	0.000457764	
7.42523	0.0180054	0.00152588	
7.42554	0.0177002	0.000610352	
7.42523	0.0189209	0.000762939	
7.42493	0.0180054	0.000610352	
7.42401	0.0186157	0.000305176	
7.42126	0.0164795	0.000305176	
7.42035	0.0137329	0.000152588	
7.42065	0.0131226	-0.000762939	
7.42065	0.0128174	-0.000305176	
7.41974	0.0128174	0.000305176	
7.42004	0.0128174	0.000152588	
7.42035	0.0125122	-0.000152588	
7.42065	0.0128174	0.000305176	
7.42004	0.0128174	0.000457764	
7.42065	0.0131226	0.000152588	
7.42035	0.0131226	0.000152588	
7.42096	0.012207	0.000152588	
7.42096	0.00976563	0.000610352	
7.42065	0.00854492	0	
7.42004	0.00823975	0	
7.41974	0.00762939	-0.000305176	
7.41638	0.00854492	-0.000152588	
7.41608	0.00793457	0.000457764	
7.41577	0.00854492	0	
7.41547	0.00854492	0.000152588	
7.41516	0.00823975	0.000152588	
7.41516	0.00823975	0.000610352	
7.41516	0.00823975	0.00152588	
7.41577	0.00732422	0.000610352	
7.41516	0.00854492	0.000457764	
7.41547	0.00762939	0.000915527	
7.41547	0.00457764	0.000152588	
7.41547	0.00366211	0.000915527	
7.41516	0.00335693	0	
7.41547	0.00335693	0.000152588	
7.41394	0.00305176	0.000305176	
7.41241	0.00396729	0.000762939	
7.41089	0.00335693	0.000152588	
7.41028	0.00366211	0.000457764	
7.40967	0.00274658	0.000915527	
7.41089	0.00396729	0.00106812	
7.41058	0.00335693	0.000762939	
7.41089	0.00335693	0.000610352	
7.41028	0.00305176	0.000762939	
7.40967	0.00366211	0.000610352	
7.41028	0.00274658	0.000610352	
7.41028	-0.000305176	0.000457764	
7.41028	-0.00152588	-0.000457764	
7.41089	-0.00213623	0	
7.41119	-0.0012207	0.000457764	
7.40936	-0.0012207	0.000305176	
7.40692	-0.00244141	-0.000152588	
7.4057	-0.00152588	0.000305176	
7.40509	-0.0012207	0.000457764	
7.40509	-0.000610352	0.000305176	
7.4054	-0.0012207	0.000762939	
7.4054	-0.00244141	0.000305176	
7.4054	-0.0012207	0.000610352	
7.40509	-0.000915527	0	
7.4057	-0.0012207	-0.000152588	
7.4057	-0.00183105	-0.000305176	
7.4054	-0.0012207	-0.000152588	
7.4057	-0.00274658	0	
7.40601	-0.00427246	0.000152588	
7.40448	-0.00640869	0.000305176	
7.40143	-0.00579834	0.000305176	
7.40021	-0.00549316	0.000610352	
7.40112	-0.00549316	0.00137329	
7.40112	-0.00640869	0.000915527	
7.40021	-0.00579834	0.000610352	
7.40021	-0.00579834	0.000762939	
7.40082	-0.00640869	0	
7.40112	-0.00640869	0.000152588	
7.40021	-0.00671387	0.000152588	
7.40082	-0.00640869	0.000457764	
7.40021	-0.00610352	0.000610352	
7.40082	-0.00610352	0.000305176	
7.40112	-0.00579834	0.000305176	
7.40112	-0.00671387	0.000457764	
7.3996	-0.00610352	0.000762939	
7.39655	-0.00610352	0.00106812	
7.39563	-0.00610352	0.000305176	
7.39563	-0.00762939	0.000610352	
7.39624	-0.00976563	0.000457764	
7.39532	-0.0109863	0.000457764	
7.39563	-0.0109863	0.000915527	
7.39532	-0.0106812	0.000305176	
7.39624	-0.0112915	-0.000305176	
7.39624	-0.0119019	0	
7.39563	-0.0115967	0.000305176	
7.39502	-0.0115967	0.000305176	
7.39624	-0.0109863	-0.000152588	
7.39471	-0.0112915	0.000152588	
7.39197	-0.0112915	0.000915527	
7.39136	-0.0106812	0.000305176	
7.39075	-0.0106812	0.000457764	
7.39105	-0.0109863	0.000457764	
7.39105	-0.0109863	0	
7.39075	-0.0112915	0.000305176	
7.39075	-0.0106812	-0.000152588	
7.39044	-0.0115967	-0.000457764	
7.39136	-0.0112915	0.000305176	
7.39044	-0.0109863	0.000457764	
7.39044	-0.0106812	0.000305176	
7.39075	-0.012207	-0.000152588	
7.39136	-0.0149536	0.000457764	
7.38922	-0.0161743	0.000762939	
7.38617	-0.0158691	0.0012207	
7.38556	-0.0161743	0.000457764	
7.38556	-0.015564	0.000457764	
7.38586	-0.0167847	0.000305176	
7.38617	-0.015564	0.000457764	
7.38556	-0.0167847	0.000305176	
7.38556	-0.0158691	0	
7.38586	-0.0158691	0.000152588	
7.38617	-0.0164795	0.000610352	
7.38586	-0.0158691	0.000610352	
7.38556	-0.0158691	0.000152588	
7.38586	-0.0158691	0.000610352	
7.38495	-0.0167847	0.000762939	
7.38159	-0.0158691	0.00106812	
7.38129	-0.0158691	0.000457764	
7.38037	-0.0161743	0.000610352	
7.38098	-0.0158691	0.000457764	
7.38098	-0.0161743	0.000152588	
7.38129	-0.0164795	0.000457764	
7.38098	-0.0167847	0.000152588	
7.38068	-0.017395	-0.000457764	
7.38007	-0.0195313	0	
7.38098	-0.0201416	0.000305176	
7.38129	-0.0210571	0.000152588	
7.38098	-0.020752	-0.000152588	
7.38037	-0.0216675	0.000305176	
7.37732	-0.0213623	0.000457764	
7.3764	-0.0210571	0.000305176	
7.3761	-0.020752	0.000457764	
7.37579	-0.020752	0.000457764	
7.3761	-0.0210571	0.000610352	
7.3764	-0.0210571	0.000305176	
7.3761	-0.0210571	-0.000152588	
7.37671	-0.0210571	-0.000457764	
7.3761	-0.0210571	-0.000152588	
7.37579	-0.0210571	0.000305176	
7.37732	-0.0210571	0	
7.3761	-0.0213623	-0.000305176	
7.37549	-0.0213623	0.000152588	
7.37274	-0.0210571	0.000610352	
7.37183	-0.0216675	0.0012207	
7.37122	-0.0213623	0.000762939	
7.3703	-0.0210571	0.000457764	
7.37122	-0.0210571	0.000457764	
7.37183	-0.0231934	0	
7.37061	-0.0253296	0.000762939	
7.37152	-0.0262451	0	
7.37152	-0.0262451	0.000152588	
7.37152	-0.0259399	0.000152588	
7.37091	-0.0262451	0.000305176	
7.36969	-0.0259399	0.000305176	
7.36664	-0.0259399	0.000610352	
7.36664	-0.0259399	0.000457764	
7.36603	-0.0256348	0.00137329	
7.36603	-0.0259399	0.000457764	
7.36664	-0.0256348	0.000610352	
7.36633	-0.0259399	0.000610352	
7.36664	-0.0262451	0.000457764	
7.36633	-0.0256348	0.000457764	
7.36603	-0.0256348	-0.000152588	
7.36572	-0.0262451	-0.000305176	
7.36572	-0.0259399	-0.000152588	
7.36664	-0.0253296	0.000457764	
7.3645	-0.0256348	-0.000152588	
7.36206	-0.0259399	0	
7.36145	-0.0259399	-0.000152588	
7.36145	-0.027771	0.000610352	
7.36084	-0.0292969	0.000457764	
7.36084	-0.0311279	0.000762939	
7.36115	-0.0308228	0.000457764	
7.36053	-0.0305176	0.000610352	
7.36084	-0.0311279	0.000152588	
7.36145	-0.0311279	0.000305176	
7.36084	-0.0311279	-0.000457764	
7.36145	-0.0308228	0	
7.36023	-0.0311279	0.000305176	
7.35718	-0.0311279	0	
7.35596	-0.0317383	0.000457764	
7.35657	-0.0311279	0.000457764	
7.35687	-0.0305176	0.000762939	
7.35626	-0.0305176	0.00106812	
7.35596	-0.0299072	0.000915527	
7.35657	-0.0311279	0.000305176	
7.35596	-0.0308228	0.000915527	
7.35657	-0.0311279	0.000305176	
7.35596	-0.0314331	0.00106812	
7.35352	-0.0305176	0	
7.3526	-0.0320435	0.000305176	
7.35199	-0.0350952	0.000305176	
7.35138	-0.0354004	0.000610352	
7.35107	-0.0360107	0.000305176	
7.35168	-0.0357056	0.000457764	
7.35168	-0.0354004	0.000915527	
7.35077	-0.0354004	0.00106812	
7.35138	-0.0354004	0.000457764	
7.35138	-0.0350952	0.000457764	
7.35229	-0.0354004	0.000915527	
7.35199	-0.0360107	0	
7.35016	-0.0354004	0.000915527	
7.34802	-0.0354004	0.000152588	
7.3465	-0.0357056	0	
7.34619	-0.0360107	-0.000152588	
7.3468	-0.0354004	0.000457764	
7.3468	-0.0354004	-0.000152588	
7.34619	-0.0366211	0.000152588	
7.3468	-0.0350952	0.000305176	
7.34619	-0.0363159	0.000305176	
7.34619	-0.0366211	0.000457764	
7.3468	-0.0390625	0.000610352	
7.34619	-0.0396729	0.000152588	
7.34497	-0.0405884	0.000152588	
7.34283	-0.0405884	0.000152588	
7.34161	-0.0405884	0.000152588	
7.34131	-0.0411987	-0.000457764	
7.34131	-0.0402832	-0.000152588	
7.34222	-0.0405884	0.000457764	
7.34161	-0.0411987	0.000305176	
7.34131	-0.0405884	0	
7.34192	-0.0402832	0.000152588	
7.341	-0.0405884	0.000915527	
7.34131	-0.0405884	0.00137329	
7.33948	-0.039978	0.000305176	
7.33795	-0.0405884	0.000305176	
7.33704	-0.039978	0.000915527	
7.33612	-0.0405884	0.000457764	
7.33643	-0.0415039	0.000762939	
7.33612	-0.0418091	-0.000152588	
7.33643	-0.0448608	0.000152588	
7.33704	-0.045166	0.000152588	
7.33673	-0.0460815	0.000305176	
7.33643	-0.0454712	0.000305176	
7.33673	-0.0454712	0.000457764	
7.33521	-0.0454712	0.000457764	
7.33276	-0.0454712	0.00106812	
7.33154	-0.0457764	0.000610352	
7.33124	-0.0457764	0.000762939	
7.33154	-0.0457764	0.000610352	
7.33215	-0.0448608	0.000152588	
7.33185	-0.0454712	0.000610352	
7.33093	-0.0454712	0	
7.33154	-0.0460815	-0.000610352	
7.33124	-0.0454712	-0.000152588	
7.33154	-0.0454712	0.000457764	
7.32971	-0.0460815	-0.000152588	
7.32727	-0.0500488	0	
7.32727	-0.050354	0.000152588	
7.32727	-0.0506592	0.000610352	
7.32605	-0.0500488	0.000152588	
7.32666	-0.0497437	0.000762939	
7.32635	-0.050354	0.000305176	
7.32727	-0.0506592	0.000152588	
7.32727	-0.0500488	0.000152588	
7.32605	-0.050354	0	
7.32574	-0.050354	-0.000762939	
7.32239	-0.0509644	0.000152588	
7.32147	-0.050354	0.000610352	
7.32147	-0.0509644	0.000305176	
7.32147	-0.0506592	0.000457764	
7.32178	-0.0521851	0.000457764	
7.32147	-0.0540161	0.000762939	
7.32208	-0.0552368	0.000762939	
7.32117	-0.0558472	0.00106812	
7.32178	-0.055542	0.000305176	
7.32208	-0.0558472	0.000610352	
7.31995	-0.0552368	0.000762939	
7.31781	-0.055542	0.000762939	
7.31689	-0.0558472	0	
7.31689	-0.0558472	-0.000152588	
7.31689	-0.055542	0.000610352	
7.31659	-0.0546265	0.000762939	
7.31689	-0.055542	0.000457764	
7.31689	-0.0558472	0.000915527	
7.3172	-0.057373	0.000915527	
7.3172	-0.0595093	0.000915527	
7.31476	-0.0595093	0.000457764	
7.31262	-0.06073	0.000305176	
7.31232	-0.0601196	0.000610352	
7.3114	-0.0604248	0.000610352	
7.3114	-0.0601196	0.000762939	
7.31201	-0.06073	0	
7.3114	-0.0604248	-0.000152588	
7.31232	-0.0604248	0	
7.3114	-0.0604248	0.000305176	
7.31201	-0.0604248	0.000152588	
7.3114	-0.0601196	0.000305176	
7.30988	-0.0598145	0	
7.30774	-0.0622559	0.000610352	
7.30713	-0.0643921	0.000610352	
7.30652	-0.0646973	0.000610352	
7.30682	-0.0662231	0.000762939	
7.30652	-0.0653076	0.000762939	
7.30682	-0.0653076	0.000457764	
7.30682	-0.0653076	0.000305176	
7.30682	-0.0656128	-0.000457764	
7.30713	-0.0650024	-0.000152588	
7.30499	-0.0650024	0.000457764	
7.30255	-0.0646973	0	
7.30225	-0.0656128	0.000305176	
7.30194	-0.0656128	0.000305176	
7.30103	-0.0650024	0.000762939	
7.30133	-0.0662231	0.0012207	
7.30194	-0.0689697	0.000915527	
7.30164	-0.0701904	0.000305176	
7.30194	-0.0698853	0.000762939	
7.30042	-0.0701904	0.000915527	
7.29858	-0.0698853	0.000762939	
7.29706	-0.0695801	0	
7.29736	-0.0698853	0.000152588	
7.29706	-0.0698853	0.000305176	
7.29645	-0.0701904	0.000152588	
7.29645	-0.0701904	0.000457764	
7.29675	-0.0701904	0.000457764	
7.29706	-0.0698853	0.000762939	
7.29645	-0.0695801	0.000762939	
7.29523	-0.071106	0.000762939	
7.29309	-0.0738525	0.000457764	
7.29248	-0.0747681	0.000457764	
7.29218	-0.0753784	0.000152588	
7.29187	-0.0747681	0.000762939	
7.29218	-0.0747681	0	
7.29156	-0.0744629	-0.000762939	
7.29248	-0.0753784	-0.000152588	
7.29156	-0.0747681	0.000457764	
7.29218	-0.0753784	0	
7.29095	-0.0750732	0.000305176	
7.28882	-0.0753784	0	
7.28699	-0.0753784	0.000915527	
7.28668	-0.0747681	0.000762939	
7.28699	-0.0762939	0.000457764	
7.28729	-0.0787354	0.000305176	
7.2879	-0.0793457	0.000457764	
7.28668	-0.0796509	0.000305176	
7.28699	-0.0793457	0	
7.28577	-0.0802612	-0.000305176	
7.28302	-0.0793457	0.000152588	
7.28241	-0.0799561	0.000610352	
7.2821	-0.0796509	0.000305176	
7.2818	-0.0796509	0.000305176	
7.28271	-0.0802612	0.000457764	
7.2818	-0.0793457	0.000762939	
7.2818	-0.0805664	0.0012207	
7.28241	-0.0793457	0.0012207	
7.28241	-0.0814819	0.000152588	
7.28119	-0.0845337	0.000457764	
7.27814	-0.085144	0.000915527	
7.27783	-0.0848389	0.000457764	
7.27753	-0.0854492	0.000152588	
7.27692	-0.0839233	0.000457764	
7.27783	-0.0842285	0.000152588	
7.27722	-0.0848389	0.000457764	
7.27722	-0.085144	0.000305176	
7.27753	-0.0848389	0.000762939	
7.2757	-0.085144	0.000457764	
7.27295	-0.085144	0.000915527	
7.27264	-0.0845337	0.000915527	
7.27203	-0.0857544	0.000152588	
7.27173	-0.0881958	0.000915527	
7.27203	-0.0897217	0.000610352	
7.27203	-0.0894165	0.000457764	
7.27173	-0.0891113	-0.000152588	
7.27173	-0.0891113	-0.000152588	
7.27081	-0.0900269	-0.000152588	
7.26807	-0.0897217	0.000610352	
7.26807	-0.0894165	0	
7.26715	-0.0888062	0.000457764	
7.26715	-0.0894165	0.000152588	
7.26746	-0.0897217	0.000457764	
7.26746	-0.0897217	0.000152588	
7.26746	-0.0906372	0.000762939	
7.26685	-0.0942993	0.000305176	
7.26624	-0.0942993	0.000457764	
7.26318	-0.0942993	0.000457764	
7.26288	-0.09552	0	
7.26257	-0.0949097	-0.000305176	
7.26227	-0.0946045	0.000305176	
7.26166	-0.0942993	0.000305176	
7.26257	-0.0952148	0	
7.26227	-0.0946045	0.000152588	
7.26288	-0.0946045	0.000457764	
7.26135	-0.0946045	0.0012207	
7.2583	-0.0946045	0.00137329	
7.25769	-0.0958252	0.000457764	
7.25708	-0.0991821	0.000610352	
7.25739	-0.0997925	0.000762939	
7.258	-0.0994873	0.000762939	
7.25769	-0.0994873	0.000457764	
7.258	-0.0994873	-0.000152588	
7.25769	-0.0991821	0.000152588	
7.25647	-0.0994873	0.000457764	
7.25342	-0.0997925	0.000457764	
7.2525	-0.098877	0.000152588	
7.2522	-0.0997925	0.000610352	
7.2522	-0.098877	0.000457764	
7.25281	-0.0991821	0.00106812	
7.2525	-0.100708	0.000762939	
7.25311	-0.102539	0.000762939	
7.2522	-0.104675	0.000305176	
7.25128	-0.104675	0.000305176	
7.24854	-0.10437	0.000610352	
7.24762	-0.104675	-0.000152588	
7.24731	-0.104675	-0.000305176	
7.24762	-0.10437	-0.000152588	
7.24792	-0.104675	0.000152588	
7.24731	-0.104675	0.000152588	
7.24792	-0.104675	0.000152588	
7.24609	-0.104065	0	
7.24396	-0.10437	0.000610352	
7.24213	-0.105286	0.000457764	
7.24243	-0.108337	0.000305176	
7.24304	-0.109253	0	
7.24304	-0.108948	0.000610352	
7.24243	-0.109253	0.000152588	
7.24243	-0.109863	0	
7.24213	-0.109253	-0.000457764	
7.2406	-0.109253	0.000152588	
7.23938	-0.108643	0.000457764	
7.23816	-0.109253	0.000152588	
7.23785	-0.109253	0.000152588	
7.23785	-0.108948	0.000152588	
7.23846	-0.108948	0.000457764	
7.23785	-0.109253	0.00137329	
7.23785	-0.110779	0.000457764	
7.23755	-0.113831	0.000457764	
7.23633	-0.114136	0.000457764	
7.23389	-0.114136	0.000762939	
7.23267	-0.114441	0.000457764	
7.23267	-0.113831	0	
7.23297	-0.114441	0	
7.23236	-0.114136	0.000457764	
7.23297	-0.114441	0.000610352	
7.23297	-0.114441	0.000152588	
7.23114	-0.114136	0.000762939	
7.22931	-0.113831	0.000457764	
7.22809	-0.114441	0.0012207	
7.22839	-0.114746	0.000305176	
7.2287	-0.118408	0.000305176	
7.22778	-0.119629	0.000610352	
7.22809	-0.119019	0.000457764	
7.22809	-0.119019	0.000610352	
7.22717	-0.119934	0	
7.22351	-0.119629	-0.000305176	
7.2229	-0.119019	-0.000152588	
7.22351	-0.119324	0.000457764	
7.2226	-0.119934	0	
7.2229	-0.119019	0	
7.22321	-0.119019	0.000152588	
7.2226	-0.119324	0.00106812	
7.2229	-0.118713	0.000305176	
7.22168	-0.120239	0.000305176	
7.21893	-0.123291	0.000152588	
7.21802	-0.123901	0.000305176	
7.21802	-0.124512	-0.000152588	
7.21832	-0.124512	0.000152588	
7.21832	-0.124817	-0.000305176	
7.21863	-0.124207	0.000152588	
7.21863	-0.124512	0.000152588	
7.21619	-0.124207	0.000152588	
7.21405	-0.123901	0.000152588	
7.21313	-0.124207	0.000305176	
7.21313	-0.124207	0.000762939	
7.21283	-0.124207	0.0012207	
7.21344	-0.124207	0.000610352	
7.21313	-0.125427	0.000457764	
7.21375	-0.127563	0.000305176	
7.21222	-0.129089	0.000762939	
7.20947	-0.129089	0.000305176	
7.20886	-0.128479	0.000152588	
7.20856	-0.128784	0.000305176	
7.20795	-0.129089	0.000610352	
7.20825	-0.128784	0.000457764	
7.20856	-0.128784	0.000152588	
7.20856	-0.129089	0.000610352	
7.20673	-0.128784	0.000762939	
7.20459	-0.128784	0.0012207	
7.20306	-0.128174	0.000457764	
7.20276	-0.129089	0.000457764	
7.20276	-0.129395	0.000305176	
7.20306	-0.129089	0.000457764	
7.20337	-0.130005	0.000610352	
7.20306	-0.133057	-0.000152588	
7.20215	-0.133972	-0.000152588	
7.1994	-0.133972	0	
7.19849	-0.133667	0.000457764	
7.1991	-0.134277	0	
7.19757	-0.133972	0.000762939	
7.19818	-0.134277	0.000152588	
7.19818	-0.133667	0.000762939	
7.19849	-0.133972	0.000457764	
7.19666	-0.132751	0.000152588	
7.19452	-0.133972	0	
7.1936	-0.133972	0.000305176	
7.1936	-0.133057	0.000152588	
7.1933	-0.133972	0.000152588	
7.19299	-0.134277	-0.000610352	
7.1936	-0.135498	0	
7.19177	-0.137939	0	
7.18933	-0.13855	0.000152588	
7.18842	-0.13855	0.000305176	
7.18872	-0.138245	0.000305176	
7.18842	-0.13916	0.000762939	
7.18842	-0.138855	0.00167847	
7.1875	-0.138855	0.000762939	
7.18872	-0.139465	0.000305176	
7.1875	-0.138245	0.000457764	
7.18475	-0.138245	0.000762939	
7.18414	-0.138855	0.000152588	
7.18353	-0.13855	0	
7.18384	-0.13916	0.000152588	
7.18384	-0.138855	0.000305176	
7.18414	-0.13916	0.000610352	
7.18201	-0.13916	0.000610352	
7.17957	-0.13855	0.000152588	
7.17926	-0.140686	0.000610352	
7.17804	-0.142517	0.000915527	
7.17834	-0.143127	0.000457764	
7.17865	-0.143738	0.000305176	
7.17865	-0.144348	0.00106812	
7.17896	-0.143127	0.000305176	
7.17712	-0.143433	0.000915527	
7.17468	-0.143433	-0.000457764	
7.17407	-0.144043	-0.000457764	
7.17377	-0.144043	0.000305176	
7.17438	-0.143127	0.000457764	
7.17407	-0.144043	-0.000305176	
7.17377	-0.143738	0.000305176	
7.17285	-0.144043	-0.000152588	
7.1698	-0.143738	0.000762939	
7.16888	-0.144043	0.000305176	
7.16919	-0.143433	0.000305176	
7.16888	-0.143127	0.000305176	
7.16888	-0.143738	0.000305176	
7.16919	-0.143738	0.000152588	
7.16766	-0.144653	0.000305176	
7.16522	-0.147705	-0.000610352	
7.1637	-0.148621	0.000305176	
7.164	-0.148621	0.000305176	
7.1637	-0.148621	0.000152588	
7.1637	-0.148621	0	
7.164	-0.148926	0.000152588	
7.16217	-0.148621	0.000915527	
7.16034	-0.148621	0.00106812	
7.15912	-0.148621	0.000610352	
7.15881	-0.148315	0.000305176	
7.15912	-0.148621	0.000152588	
7.15942	-0.149231	0.000457764	
7.15912	-0.148621	0.000762939	
7.15698	-0.148621	0.000152588	
7.15485	-0.148315	0.000152588	
7.15363	-0.148926	0.000457764	
7.15332	-0.148315	0.000305176	
7.15424	-0.148621	0.000457764	
7.15363	-0.14801	0.000610352	
7.15485	-0.148315	0.000762939	
7.1524	-0.148315	0.00106812	
7.14966	-0.148621	0.000762939	
7.14874	-0.148926	0.000457764	
7.14905	-0.148621	0.000762939	
7.14905	-0.148621	0.000610352	
7.14844	-0.149841	0.000762939	
7.14935	-0.153198	0	
7.14722	-0.153503	-0.000152588	
7.14478	-0.152893	-0.000152588	
7.14386	-0.154114	0.000152588	
7.14355	-0.153198	-0.000152588	
7.14386	-0.153503	0.000305176	
7.14478	-0.152588	0.000152588	
7.14386	-0.153503	0.000762939	
7.14264	-0.153198	0	
7.13989	-0.153503	0.000457764	
7.13928	-0.153809	0.000305176	
7.13898	-0.153809	0.000457764	
7.13806	-0.153503	0	
7.13928	-0.153503	-0.000152588	
7.13959	-0.153503	-0.000305176	
7.13867	-0.154114	0.000457764	
7.13501	-0.153198	0.000152588	
7.1347	-0.153503	0.000457764	
7.13409	-0.153198	0.000305176	
7.13379	-0.153503	0.000457764	
7.13409	-0.153503	0.00106812	
7.13257	-0.153503	0.00106812	
7.13104	-0.153198	0.000457764	
7.12921	-0.152893	0.000610352	
7.12891	-0.153809	0.000457764	
7.12891	-0.153198	0.00106812	
7.12921	-0.153198	0.000610352	
7.12891	-0.152893	0.000305176	
7.12769	-0.153503	-0.000152588	
7.12463	-0.153198	0.000915527	
7.12463	-0.153503	0.000305176	
7.12372	-0.153503	0.000152588	
7.12402	-0.153198	0.000457764	
7.12463	-0.152893	0.000610352	
7.12311	-0.152893	0.000915527	
7.12036	-0.153809	0.000762939	
7.11945	-0.153198	0.000305176	
7.11914	-0.152893	0.000762939	
7.11945	-0.153198	0.000152588	
7.11884	-0.153198	0.000305176	
7.11853	-0.153503	-0.000152588	
7.11823	-0.153503	-0.000457764	
7.11548	-0.153809	0.000152588	
7.11426	-0.153198	0.000457764	
7.11487	-0.153503	0.000152588	
7.11426	-0.152893	0.000305176	
7.11426	-0.152893	0	
7.11334	-0.152893	0.000610352	
7.1106	-0.153503	0.000305176	
7.10968	-0.152893	0.000610352	
7.10938	-0.153503	0.000305176	
7.10968	-0.153503	0.000305176	
7.10907	-0.153503	0.000152588	
7.10968	-0.154419	0	
7.10754	-0.153809	-0.000305176	
7.10571	-0.153809	0.000152588	
7.10449	-0.154114	0.000152588	
7.1051	-0.153198	0.000305176	
7.1051	-0.153503	0.000457764	
7.1051	-0.153503	0.000457764	
7.10297	-0.153809	0.000762939	
7.10022	-0.153809	0.000915527	
7.09961	-0.152893	0.00106812	
7.10022	-0.153809	0	
7.09991	-0.153809	0.000305176	
7.09961	-0.152283	0.000762939	
7.09839	-0.149536	0.000457764	
7.09656	-0.148621	0.000152588	
7.09473	-0.148315	0	
7.09503	-0.148621	0.000457764	
7.09534	-0.14801	0.000610352	
7.09473	-0.148621	0.000152588	
7.0932	-0.148621	0.000457764	
7.09106	-0.148621	0.000915527	
7.09045	-0.148621	0.00106812	
7.09015	-0.148315	0.000915527	
7.08923	-0.148315	0.000305176	
7.08923	-0.148315	0.000610352	
7.08984	-0.148621	0	
7.08832	-0.148621	0.000762939	
7.08618	-0.148621	-0.000152588	
7.08466	-0.148315	-0.000762939	
7.08496	-0.144653	0	
7.08466	-0.143738	0.000457764	
7.08435	-0.143738	0	
7.08344	-0.143738	0.000305176	
7.08099	-0.144043	0.000305176	
7.07977	-0.143433	0.000457764	
7.08008	-0.143738	0.000305176	
7.08038	-0.143738	0.000457764	
7.08008	-0.143738	0.000305176	
7.07855	-0.143127	0.000305176	
7.07581	-0.142822	0.000305176	
7.07458	-0.140076	0.000152588	
7.07458	-0.13855	-0.000305176	
7.0752	-0.138245	0.000152588	
7.07489	-0.13855	0.000457764	
7.07397	-0.139465	0.000305176	
7.07062	-0.13916	0.000305176	
7.07062	-0.138245	0.000305176	
7.0697	-0.138855	0.000762939	
7.0697	-0.136414	0.00106812	
7.07092	-0.134583	0.000762939	
7.06787	-0.133972	0.000305176	
7.06696	-0.133972	0.000762939	
7.06543	-0.133667	0.000610352	
7.06451	-0.133667	0.000457764	
7.06512	-0.134277	0.000305176	
7.06543	-0.133972	-0.000152588	
7.06421	-0.133057	0.000457764	
7.06085	-0.130005	0.000152588	
7.06024	-0.128784	-0.000152588	
7.06085	-0.129395	0.000457764	
