model_ppg1.acq
0.5 msec/sample
3 channels
RSP, X, RSPEC-R
Volts
PPG, X, PPGED-R
Volts
ECG, Y, RSPEC-R
mV
CH1	CH2	CH13	
283587	283587	283587	
6.67969	-0.0552368	0.000610352	
6.6806	-0.0552368	0.000457764	
6.67938	-0.055542	0.000152588	
6.6803	-0.055542	0.000305176	
6.67969	-0.0552368	0.000152588	
6.6803	-0.0558472	0	
6.67908	-0.055542	0	
6.6806	-0.0549316	0.000610352	
6.67999	-0.055542	0.000457764	
6.67999	-0.0552368	0.000610352	
6.67999	-0.0549316	0.000457764	
6.6803	-0.0552368	0.000610352	
6.68182	-0.0558472	0.000610352	
6.68427	-0.055542	0.000915527	
6.68488	-0.0552368	0.000762939	
6.68488	-0.0558472	0.000457764	
6.68457	-0.0552368	0.000152588	
6.68457	-0.055542	0.000305176	
6.68488	-0.055542	0.000305176	
6.68457	-0.0561523	0.000457764	
6.68549	-0.0552368	0.000457764	
6.68488	-0.055542	0.000305176	
6.68427	-0.0552368	0.000305176	
6.68488	-0.0549316	0.000457764	
6.68488	-0.0552368	0.000762939	
6.68488	-0.0558472	0	
6.68457	-0.0552368	0.000305176	
6.68427	-0.055542	0.000915527	
6.68518	-0.0552368	0.000305176	
6.6861	-0.0552368	0.000305176	
6.68884	-0.0558472	0	
6.68976	-0.0552368	0.000305176	
6.69037	-0.055542	-0.000152588	
6.68945	-0.055542	-0.000152588	
6.68976	-0.0552368	0.000152588	
6.69006	-0.0515747	0.000152588	
6.68976	-0.0506592	0.000152588	
6.68976	-0.0509644	0.000610352	
6.69006	-0.0506592	0.000457764	
6.68976	-0.0509644	0.000457764	
6.69006	-0.0509644	0.000457764	
6.68976	-0.050354	0.000152588	
6.68976	-0.0494385	0.000152588	
6.69006	-0.0509644	0	
6.69006	-0.0497437	0	
6.68976	-0.050354	0.000305176	
6.68945	-0.0506592	0	
6.69189	-0.050354	0.000915527	
6.69373	-0.0509644	0.000457764	
6.69464	-0.0506592	0.000762939	
6.69464	-0.050354	0.000457764	
6.69525	-0.0506592	0.000762939	
6.69403	-0.0509644	0.000457764	
6.69434	-0.0466919	0.000305176	
6.69434	-0.0454712	0.000152588	
6.69434	-0.0454712	0.000305176	
6.69464	-0.0460815	-0.000152588	
6.69525	-0.0457764	0.000152588	
6.69403	-0.0460815	0.000305176	
6.69464	-0.0454712	0.000152588	
6.69495	-0.0454712	0.000305176	
6.69464	-0.045166	0.000610352	
6.69464	-0.0457764	0.000152588	
6.69495	-0.0454712	0.000610352	
6.69495	-0.045166	0.000610352	
6.69708	-0.0421143	0.000152588	
6.69922	-0.0408936	0.000305176	
6.69891	-0.0402832	0.000305176	
6.69922	-0.0405884	0.000457764	
6.69983	-0.0408936	0.000457764	
6.70013	-0.0408936	0.000152588	
6.69891	-0.0408936	0	
6.69891	-0.0408936	0.000152588	
6.70044	-0.0405884	0.000152588	
6.69952	-0.0366211	0.000457764	
6.69983	-0.0354004	0.000610352	
6.69952	-0.0357056	0.000152588	
6.69983	-0.0357056	0.000915527	
6.70044	-0.0357056	0.000457764	
6.69952	-0.0354004	0.000610352	
6.69983	-0.0360107	0.000457764	
6.69952	-0.0354004	0.000457764	
6.69952	-0.0323486	0.000457764	
6.69922	-0.0314331	0.000152588	
6.70197	-0.0311279	0	
6.7041	-0.0311279	0	
6.70441	-0.0308228	0	
6.70471	-0.0308228	0.000305176	
6.70471	-0.0302124	0.000305176	
6.70471	-0.027771	0.000305176	
6.70471	-0.0262451	0.000305176	
6.70502	-0.0259399	0.000915527	
6.70532	-0.0259399	0.000305176	
6.70471	-0.0262451	0.000305176	
6.7041	-0.0265503	0.000610352	
6.70471	-0.0259399	0.000152588	
6.70471	-0.0228882	-0.000305176	
6.7041	-0.0210571	0.000457764	
6.70471	-0.0210571	0.000457764	
6.7041	-0.0213623	0.000152588	
6.70471	-0.0213623	0.000610352	
6.70471	-0.0180054	0.000762939	
6.70441	-0.0158691	0.000457764	
6.70502	-0.015564	0.000152588	
6.70654	-0.0161743	0.000610352	
6.70868	-0.0158691	0.000457764	
6.70959	-0.0158691	0	
6.70959	-0.0125122	0.000457764	
6.70898	-0.0112915	0.000152588	
6.70959	-0.0106812	0.000152588	
6.70898	-0.0112915	0.000152588	
6.70929	-0.0106812	0.000152588	
6.70929	-0.00762939	0.000305176	
6.71051	-0.00610352	0.000152588	
6.7099	-0.00610352	0.000305176	
6.7099	-0.00671387	0.000152588	
6.70929	-0.00549316	0.000152588	
6.70898	-0.00244141	0.000762939	
6.70898	-0.0012207	0.000152588	
6.70898	-0.0012207	0.000305176	
6.70929	-0.000610352	0.000610352	
6.70959	0.00183105	0.000457764	
6.70898	0.00274658	0.000305176	
6.70929	0.00305176	0	
6.71143	0.00305176	0	
6.71417	0.00335693	0.000152588	
6.71448	0.00640869	0.000152588	
6.71387	0.00762939	0.000610352	
6.71326	0.00823975	0.000457764	
6.71417	0.00854492	0.000152588	
6.71448	0.0119019	0.000457764	
6.71448	0.0128174	0.000305176	
6.71448	0.0134277	0.000610352	
6.71478	0.0134277	0.000610352	
6.71417	0.0161743	0.000152588	
6.71478	0.0183105	0.000457764	
6.71448	0.0177002	0	
6.71448	0.0180054	0.000152588	
6.71387	0.0216675	0.000305176	
6.71417	0.0222778	0.000152588	
6.71448	0.022583	0.000610352	
6.71448	0.0234985	0.000305176	
6.71417	0.0256348	0	
6.71417	0.0280762	0.000457764	
6.71417	0.0283813	0.000610352	
6.716	0.0280762	0.000305176	
6.71906	0.0311279	0	
6.71875	0.0326538	0.000762939	
6.71906	0.0323486	0.000457764	
6.71906	0.0332642	0.000305176	
6.71906	0.0354004	0	
6.71906	0.0369263	0.000305176	
6.71906	0.038147	0	
6.71936	0.0378418	0.000305176	
6.71875	0.0408936	0.000305176	
6.71906	0.0427246	0.000305176	
6.71844	0.0427246	-0.000152588	
6.71936	0.0454712	0.000762939	
6.71967	0.0473022	0.000610352	
6.71906	0.0482178	0.000457764	
6.71906	0.0488281	0.000915527	
6.71906	0.0506592	0.000610352	
6.71875	0.0524902	0.000457764	
6.71997	0.0527954	0.000152588	
6.71906	0.0558472	0.000305176	
6.71936	0.057373	0.000152588	
6.71967	0.0570679	0.000305176	
6.72119	0.0576782	0.000610352	
6.72363	0.06073	0.000152588	
6.72394	0.0616455	0.000457764	
6.72424	0.062561	0.000762939	
6.72363	0.0634766	0.000762939	
6.72394	0.065918	0.000457764	
6.72424	0.0668335	0.000457764	
6.72424	0.0674438	0.000305176	
6.72455	0.0701904	0.000457764	
6.72424	0.0714111	0	
6.72424	0.0723267	0.000915527	
6.72424	0.0723267	0.000152588	
6.72455	0.0756836	0.000457764	
6.72424	0.0765991	0.000152588	
6.72455	0.0772095	0.000610352	
6.72394	0.0805664	0.000610352	
6.72424	0.0805664	0.000457764	
6.72394	0.0814819	0.000457764	
6.72363	0.0814819	0.000305176	
6.72394	0.0839233	0	
6.72394	0.0857544	0.000457764	
6.72394	0.0872803	0.000305176	
6.72455	0.0894165	0.000305176	
6.72668	0.0906372	0.000457764	
6.72852	0.0912476	0.000305176	
6.72913	0.0939941	0.000305176	
6.72943	0.0958252	0	
6.72882	0.0958252	0.000457764	
6.72882	0.0964355	0.000305176	
6.72974	0.0985718	0.000152588	
6.72852	0.100403	0.000762939	
6.72882	0.101929	0.000610352	
6.72943	0.104065	0.000305176	
6.72913	0.105896	0.000457764	
6.72943	0.105896	0.000457764	
6.72882	0.105896	0.000610352	
6.72913	0.109863	0	
6.72913	0.109863	0.000152588	
6.72852	0.110474	0.000305176	
6.72882	0.111084	0.000152588	
6.72882	0.114441	0.000762939	
6.72913	0.115967	0.000305176	
6.72913	0.115356	0.000305176	
6.72974	0.119019	0.000610352	
6.72913	0.120239	0.000762939	
6.72882	0.120544	0.000305176	
6.72943	0.12085	0.000457764	
6.73126	0.123901	0.000610352	
6.73309	0.124512	0	
6.73401	0.126038	0	
6.73462	0.128784	0.000305176	
6.73401	0.130005	0.000152588	
6.73462	0.130615	0.000305176	
6.73431	0.130005	0.000305176	
6.73431	0.133667	0.000305176	
6.73431	0.134888	0.000305176	
6.73584	0.134888	0.000610352	
6.73431	0.134888	0.000457764	
6.73401	0.138245	0.000305176	
6.73431	0.139771	0	
6.73401	0.140381	0.000915527	
6.73431	0.140991	0.000610352	
6.73401	0.143127	0	
6.73492	0.144348	0.000457764	
6.73431	0.144958	0.000305176	
6.7337	0.145569	0.000305176	
6.7334	0.148621	0.000305176	
6.7334	0.149536	0.000305176	
6.73431	0.149231	0.000152588	
6.7337	0.150452	-0.000152588	
6.7334	0.153809	0.000305176	
6.7334	0.154419	0.000610352	
6.73645	0.154419	0.000305176	
6.73859	0.155029	0.000762939	
6.7392	0.158081	0.000305176	
6.7392	0.159302	0.000305176	
6.73889	0.159302	0.000305176	
6.73889	0.159912	0.000305176	
6.7392	0.163269	0.000305176	
6.73889	0.164185	0	
6.73859	0.16449	0.000457764	
6.73889	0.16449	0.000610352	
6.7395	0.168457	0.000305176	
6.73889	0.168762	0.000610352	
6.73981	0.170288	0.000457764	
6.73889	0.169983	0.000457764	
6.73981	0.169678	0.000152588	
6.7392	0.173035	0.000305176	
6.7392	0.174561	0.000457764	
6.73889	0.174255	0.000152588	
6.73981	0.175171	0.000305176	
6.7395	0.177612	0.000305176	
6.73889	0.179138	0.000305176	
6.73828	0.178833	0.000305176	
6.73828	0.179138	0.000610352	
6.73889	0.179749	0.000305176	
6.7395	0.1828	0.000457764	
6.7392	0.183716	0.000762939	
6.73889	0.184326	0.000457764	
6.74103	0.184021	0	
6.74316	0.184326	0.000915527	
6.74438	0.184021	0	
6.74377	0.187378	0.000457764	
6.74408	0.188599	0.000305176	
6.74438	0.188904	0.000305176	
6.74438	0.188293	0.000152588	
6.74377	0.189209	0.000152588	
6.74438	0.191956	0.000152588	
6.74408	0.193787	0.000457764	
6.74377	0.193787	0.000152588	
6.74377	0.193787	0.000915527	
6.74469	0.194092	0.000457764	
6.74408	0.194397	0.000610352	
6.74408	0.197449	0.000305176	
6.74408	0.198975	0.000305176	
6.74408	0.198975	0.000457764	
6.74316	0.198975	0.000457764	
6.74377	0.198975	0.000305176	
6.74438	0.198669	0.000152588	
6.74408	0.198975	0.000305176	
6.74377	0.202942	0.000457764	
6.74408	0.203552	0.000457764	
6.74408	0.203857	0.000610352	
6.74438	0.204163	0.000762939	
6.74469	0.203857	0.000915527	
6.74438	0.203857	0.000610352	
6.74377	0.203857	0.000610352	
6.74591	0.20752	0.000457764	
6.74866	0.208435	0.000152588	
6.74835	0.209351	0	
6.74866	0.20813	0.000305176	
6.74866	0.209045	0.000305176	
6.74835	0.20813	0.000305176	
6.74896	0.20874	0.000152588	
6.74927	0.209351	0.000152588	
6.74927	0.211792	0.000305176	
6.74896	0.213623	0.000610352	
6.74896	0.213318	0.000762939	
6.74805	0.213318	0.000152588	
6.74866	0.213623	0	
6.74896	0.213318	0.000610352	
6.74927	0.214539	0.000152588	
6.74927	0.213623	0.000152588	
6.74866	0.213623	0.000457764	
6.74896	0.213623	0.000305176	
6.74866	0.214233	0.000152588	
6.74896	0.217285	0.000457764	
6.74835	0.218506	0.000305176	
6.74896	0.218506	0.000305176	
6.74866	0.217896	0	
6.74896	0.217896	0.00106812	
6.74866	0.218201	0.000762939	
6.74866	0.219421	0.000152588	
6.74866	0.218506	0.000305176	
6.74866	0.218811	0.000152588	
6.74866	0.218201	0.000305176	
6.75079	0.218506	0.000152588	
6.75323	0.218506	0.000305176	
6.75354	0.218811	0.000152588	
6.75415	0.218201	0.000305176	
6.75354	0.218506	0.000457764	
6.75354	0.221558	0.000457764	
6.75354	0.223083	0.000305176	
6.75415	0.222778	0.000762939	
6.75385	0.223389	0.000457764	
6.75385	0.223083	0.000152588	
6.75293	0.223389	0.000610352	
6.75385	0.223389	0.000152588	
6.75262	0.223389	0.000305176	
6.75354	0.223694	0.000152588	
6.75354	0.223694	0.000610352	
6.75293	0.223999	0.000305176	
6.75354	0.222778	0.000457764	
6.75385	0.223694	0.000305176	
6.75354	0.223083	0.000305176	
6.75446	0.223389	0.000457764	
6.75354	0.223389	0.000762939	
6.75323	0.222778	0.000762939	
6.75354	0.223083	0.000305176	
6.75354	0.223083	0	
6.75354	0.223083	0.000457764	
6.75354	0.223083	0.000305176	
6.75385	0.223083	0.000457764	
6.75446	0.223083	0.000152588	
6.75385	0.223389	0.000152588	
6.75659	0.223083	0.000610352	
6.75812	0.223694	0.000457764	
6.75903	0.223694	0.000305176	
6.75903	0.223694	0.000152588	
6.75903	0.223389	0	
6.75873	0.223694	0.000762939	
6.75903	0.223694	0.000152588	
6.75842	0.223083	0.000610352	
6.75964	0.223389	0.000305176	
6.75873	0.223694	0.000305176	
6.75842	0.223999	0.000305176	
6.75812	0.223083	0.000457764	
6.75934	0.223999	0	
6.75873	0.223389	0.000457764	
6.75903	0.222778	0	
6.75842	0.223083	0.000457764	
6.75934	0.223083	0.000305176	
6.75873	0.223694	0.000610352	
6.75903	0.220337	0.000457764	
6.75934	0.219116	0.000610352	
6.75812	0.218201	0.000762939	
6.75903	0.218201	0.000305176	
6.75903	0.219116	0.000457764	
6.75903	0.218506	0	
6.75903	0.217896	0.000152588	
6.75873	0.218811	0.000457764	
6.75934	0.218201	0.000152588	
6.75903	0.219116	0.000457764	
6.75873	0.218201	0.000305176	
6.75903	0.218811	0.000152588	
6.76025	0.218201	0.000152588	
6.76331	0.218201	0.000610352	
6.763	0.218506	0.000457764	
6.76331	0.218201	0.000457764	
6.76392	0.215454	0	
6.76361	0.213928	0.000610352	
6.76453	0.214233	0.000305176	
6.76331	0.213013	0.000610352	
6.76392	0.213318	0	
6.76331	0.213928	0	
6.76361	0.213928	0	
6.76361	0.213318	0.000305176	
6.76331	0.213623	0.000305176	
6.76361	0.213928	0.000152588	
6.76392	0.213623	0	
6.76331	0.212708	0.000610352	
6.76392	0.210266	0.000457764	
6.763	0.209351	0.000457764	
6.76392	0.20813	0.000610352	
6.76392	0.208435	0.000305176	
6.76392	0.208435	0.000457764	
6.76331	0.208435	0.000305176	
6.76331	0.208435	0.000152588	
6.76361	0.209045	0.000305176	
6.76361	0.20813	0.000152588	
6.76331	0.205078	0.000610352	
6.76331	0.203552	0.000305176	
6.76392	0.204468	0.000915527	
6.76361	0.203857	0.000762939	
6.76361	0.203552	0.000152588	
6.76361	0.203857	0.000610352	
6.76575	0.203857	0.000457764	
6.76819	0.204163	0.000610352	
6.76819	0.203247	0.000305176	
6.7688	0.2005	0.000305176	
6.7688	0.198669	0.000610352	
6.76849	0.198975	0.000152588	
6.76849	0.198669	0.000610352	
6.76849	0.198669	0.000152588	
6.7688	0.19928	0.000457764	
6.7688	0.198975	0.000305176	
6.76819	0.195923	0.000457764	
6.76849	0.194092	0.000457764	
6.7688	0.194092	0.000305176	
6.76849	0.194092	0	
6.76819	0.193787	0.000457764	
6.7688	0.194397	0.000305176	
6.76819	0.193787	0.000457764	
6.76849	0.193481	0.000305176	
6.76819	0.19043	0.000152588	
6.76849	0.189209	0.000152588	
6.76849	0.188904	0.000457764	
6.76819	0.188904	0.000305176	
6.76788	0.188599	0.000305176	
6.76819	0.188599	0.000457764	
6.76819	0.186157	0.000762939	
6.76819	0.184326	0.000762939	
6.7691	0.184021	0.000610352	
6.76849	0.183716	0.000152588	
6.7688	0.184326	0.000305176	
6.76788	0.183411	0.000152588	
6.76819	0.183105	0.000305176	
6.76758	0.180359	0.000610352	
6.77002	0.179443	0.000152588	
6.77246	0.178833	0.000305176	
6.77338	0.178833	0.000457764	
6.77338	0.179138	0.000305176	
6.77338	0.179138	0.000305176	
6.77338	0.176086	0.000305176	
6.77368	0.174561	0.000610352	
6.77368	0.174561	0.000457764	
6.77399	0.174561	0.000610352	
6.77307	0.17334	0.000305176	
6.77368	0.170288	0.000152588	
6.77277	0.169373	0	
6.77368	0.169067	0.000762939	
6.77338	0.169067	0.000305176	
6.77368	0.169067	0.000457764	
6.77277	0.168762	0	
6.77368	0.165405	0.000305176	
6.77338	0.164185	0.000152588	
6.77429	0.163879	0.000305176	
6.77399	0.16449	0.000762939	
6.77338	0.164185	0.000457764	
6.77338	0.163574	-0.000152588	
6.77368	0.160828	0.000915527	
6.77338	0.159607	0.000457764	
6.77368	0.159607	0	
6.77399	0.159607	0.000610352	
6.77368	0.158691	0	
6.77399	0.15625	0.000457764	
6.77368	0.155029	0.000152588	
6.77368	0.154724	0.000457764	
6.77399	0.155029	0.000305176	
6.77368	0.154724	0.000305176	
6.77368	0.151367	0.000762939	
6.77368	0.149841	0.000457764	
6.77521	0.150146	0.000457764	
6.77795	0.150146	0.000457764	
6.77856	0.150146	0.000457764	
6.77795	0.1474	0.000610352	
6.77917	0.145569	0.000305176	
6.77856	0.144958	0.000305176	
6.77856	0.145264	0.000152588	
6.77887	0.145264	0.000152588	
6.77856	0.144653	0.000762939	
6.77826	0.141602	0.000457764	
6.77917	0.140381	0.000305176	
6.77826	0.140381	0.000610352	
6.77795	0.140076	0.000610352	
6.77948	0.139771	0.000762939	
6.77887	0.136719	0.000610352	
6.77856	0.135498	0.000457764	
6.77856	0.135803	0.000305176	
6.77887	0.134583	0	
6.77887	0.134888	0.000457764	
6.77795	0.132141	0.000152588	
6.77887	0.13031	0.000305176	
6.77826	0.1297	0.000305176	
6.77826	0.130005	0.000305176	
6.77856	0.127563	0.000152588	
6.77826	0.125427	0.000457764	
6.77826	0.126343	0.000762939	
6.77795	0.124512	0.000305176	
6.77795	0.125122	0.000152588	
6.77795	0.122681	0.000457764	
6.77856	0.121155	0.000457764	
6.77887	0.120239	0.000152588	
6.77856	0.120544	0.000305176	
6.77856	0.120239	0	
6.77826	0.117188	0	
6.77826	0.115662	0.000152588	
6.77856	0.115051	0.000457764	
6.7807	0.115967	0	
6.78345	0.114746	0.000152588	
6.78314	0.11261	0.000762939	
6.78375	0.111084	0.000457764	
6.78314	0.111084	0.000305176	
6.78375	0.110168	0.000457764	
6.78375	0.109863	0.000610352	
6.78406	0.107727	0.000457764	
6.78406	0.105286	0.000457764	
6.78375	0.105896	0.000305176	
6.78345	0.105896	0.000305176	
6.78253	0.105591	0	
6.78375	0.102234	0.000762939	
6.78314	0.100708	0.000457764	
6.78345	0.100708	0.000152588	
6.78345	0.101013	0.000457764	
6.78375	0.100098	0.000305176	
6.78375	0.0970459	0.000305176	
6.78345	0.0958252	0.000305176	
6.78345	0.0958252	0.000457764	
6.78345	0.0958252	0.000457764	
6.78284	0.09552	0.000152588	
6.78345	0.0924683	0.000152588	
6.78375	0.0915527	0.000152588	
6.78345	0.0909424	0.000152588	
6.78406	0.0909424	0.000457764	
6.78345	0.090332	0.000305176	
6.78406	0.0869751	0	
6.78314	0.0863647	0.000305176	
6.78345	0.0863647	0.000457764	
6.78314	0.0860596	0.000457764	
6.78345	0.0857544	0.000152588	
6.78375	0.0823975	0.000915527	
6.78345	0.0814819	0.000305176	
6.78345	0.0811768	0.000305176	
6.78345	0.0811768	0.000457764	
6.78314	0.0805664	0.000152588	
6.78314	0.0787354	0.000305176	
6.78528	0.0778198	0.000152588	
6.78772	0.0769043	0.000457764	
6.78864	0.0772095	0.000305176	
6.78833	0.0765991	0	
6.78833	0.0741577	0.000915527	
6.78833	0.0723267	0.000610352	
6.78894	0.0723267	0.000457764	
6.78833	0.0720215	0.000152588	
6.78802	0.0720215	0.000915527	
6.78864	0.0689697	0.000610352	
6.78894	0.0668335	0.000457764	
6.78864	0.0668335	0	
6.78802	0.0671387	0.000305176	
6.78833	0.0665283	0	
6.78772	0.0640869	0.000152588	
6.78864	0.0622559	0.000305176	
6.78864	0.0619507	0.000305176	
6.78894	0.0622559	0.000762939	
6.78802	0.0619507	0.000305176	
6.78894	0.0622559	0.000610352	
6.78894	0.0585938	0.000305176	
6.78802	0.057373	0.000457764	
6.78894	0.0570679	0.000610352	
6.78772	0.0576782	0	
6.78864	0.0570679	0.000152588	
6.78802	0.0537109	0.000457764	
6.78864	0.0531006	0.000152588	
6.78864	0.0524902	0.000457764	
6.78833	0.0521851	0.000610352	
6.78772	0.0521851	0.000152588	
6.78833	0.0524902	0.000762939	
6.78833	0.0497437	0.000610352	
6.78802	0.0473022	0.000457764	
6.78772	0.0473022	0	
6.78833	0.0473022	0.000610352	
6.78864	0.0473022	0.000152588	
6.78772	0.0469971	0.000610352	
6.78802	0.045166	0.000305176	
6.78802	0.0424194	0.000305176	
6.78894	0.0427246	0.000457764	
6.78833	0.043335	0.000457764	
6.78833	0.0418091	0	
6.78955	0.0390625	0.000152588	
6.79077	0.0378418	0.000152588	
6.79291	0.0369263	0.000762939	
6.79291	0.0378418	0.000610352	
6.79321	0.0378418	0.000305176	
6.79352	0.0375366	0.000305176	
6.79352	0.0341797	0.000305176	
6.79352	0.032959	0.000457764	
6.79352	0.0335693	0.000305176	
6.79352	0.0323486	0.000152588	
6.79321	0.0326538	0.000305176	
6.79321	0.0323486	0	
6.79291	0.0323486	0.000762939	
6.79352	0.0296021	0.000610352	
6.7923	0.0286865	0.000457764	
6.79352	0.0286865	0.000457764	
6.79352	0.0274658	0.000610352	
6.79352	0.0283813	0.000457764	
6.79352	0.0274658	0.000305176	
6.79321	0.0238037	0.000457764	
6.79352	0.0231934	0.000457764	
6.79321	0.0228882	0.000152588	
6.7926	0.0228882	0.000305176	
6.79321	0.0228882	0.000457764	
6.79413	0.0228882	0.000457764	
6.79321	0.0222778	0	
6.79321	0.0201416	0.000762939	
6.79382	0.0183105	0.000305176	
6.79352	0.0180054	0.000762939	
6.79352	0.0180054	0.000915527	
6.79321	0.0183105	0.000305176	
6.79321	0.0180054	0	
6.79321	0.0180054	0.000457764	
6.79321	0.0152588	0	
6.79321	0.0134277	0.000305176	
6.79291	0.0134277	0.000152588	
6.79291	0.0131226	0	
6.79291	0.0131226	0.000457764	
6.79321	0.0134277	0.000457764	
6.79321	0.0119019	0	
6.79352	0.0100708	0.000305176	
6.79352	0.00762939	0.000305176	
6.79291	0.00732422	0.000915527	
6.79321	0.00823975	0.000305176	
6.79291	0.00762939	0.000152588	
6.7926	0.00793457	0.000610352	
6.7926	0.00823975	0.000457764	
6.79382	0.00762939	0.000305176	
6.79321	0.00488281	0	
6.7926	0.00305176	0	
6.79535	0.00244141	0.000152588	
6.79779	0.00274658	0.000152588	
6.79749	0.00335693	0.000457764	
6.7984	0.00335693	0.000152588	
6.79749	0.00305176	0.000457764	
6.79871	0.00335693	0.000762939	
6.79779	0.00274658	0.000457764	
6.7984	0.000305176	0.000457764	
6.7984	-0.0012207	0.000305176	
6.7981	-0.000915527	0.000305176	
6.79779	-0.000915527	0.000457764	
6.79779	-0.00152588	0.000152588	
6.7981	-0.000915527	0.000305176	
6.79779	-0.0012207	0.000305176	
6.79871	-0.000610352	0.000305176	
6.7981	-0.00183105	0.000305176	
6.7981	-0.00457764	0.000457764	
6.79871	-0.00549316	0.000305176	
6.79779	-0.00640869	0.000610352	
6.7984	-0.00640869	0.000305176	
6.79779	-0.00549316	0.000457764	
6.7981	-0.00610352	0	
6.79871	-0.00579834	0.000762939	
6.7981	-0.00610352	0.000305176	
6.79779	-0.00610352	0.000457764	
6.79779	-0.00610352	0	
6.7981	-0.00640869	0.000305176	
6.7984	-0.0100708	0.000152588	
6.7981	-0.0106812	0.000457764	
6.7981	-0.0112915	0.000152588	
6.7981	-0.0109863	0.000305176	
6.7981	-0.0115967	0	
6.79749	-0.0112915	0.000762939	
6.7981	-0.0115967	0.000610352	
6.7981	-0.0112915	0.000305176	
6.7984	-0.0119019	0.000457764	
6.79779	-0.010376	0.000305176	
6.7984	-0.0106812	0.000152588	
6.7984	-0.0109863	0.000457764	
6.79779	-0.0149536	0.000152588	
6.79779	-0.015564	0.000152588	
6.79871	-0.0164795	0	
6.79749	-0.015564	0.000457764	
6.79871	-0.0164795	0.000457764	
6.79718	-0.0164795	0.000457764	
6.79779	-0.0164795	0.000762939	
6.7981	-0.0158691	0.000762939	
6.79871	-0.0161743	0.000457764	
6.7984	-0.0158691	0.000457764	
6.7984	-0.0164795	0.000152588	
6.7984	-0.0164795	0.000457764	
6.7984	-0.0152588	0	
6.7984	-0.0164795	0.000305176	
6.7984	-0.0164795	0	
6.7984	-0.0201416	0.000152588	
6.7984	-0.0210571	0.000152588	
6.7981	-0.020752	0.000305176	
6.7984	-0.0210571	0.000305176	
6.7984	-0.0213623	0.000762939	
6.7984	-0.0210571	0.000457764	
6.7981	-0.0210571	0.000457764	
6.7984	-0.0213623	-0.000152588	
6.79779	-0.020752	0.000762939	
6.79993	-0.0213623	0.000152588	
6.80267	-0.0213623	0.000305176	
6.80298	-0.0213623	0.000457764	
6.80298	-0.0210571	0.000305176	
6.80267	-0.0201416	0.000152588	
6.80359	-0.020752	0.000152588	
6.80298	-0.0219727	0.000305176	
6.80328	-0.0213623	0.000152588	
6.80298	-0.0213623	0	
6.80237	-0.0210571	0.000762939	
6.80298	-0.0210571	0.000305176	
6.80328	-0.0219727	0.000762939	
6.80298	-0.0213623	0.000457764	
6.80267	-0.0213623	0.000152588	
6.80298	-0.0216675	0.000152588	
6.80298	-0.0244141	0.000457764	
6.80298	-0.0262451	0	
6.80389	-0.0253296	0.000305176	
6.80328	-0.0256348	0	
6.80267	-0.0259399	0.000457764	
6.80267	-0.0262451	0.000457764	
6.80328	-0.0262451	0.000305176	
6.80267	-0.0256348	0.000610352	
6.80267	-0.0262451	0.000305176	
6.80328	-0.0262451	0.000305176	
6.80328	-0.0265503	0.000457764	
6.80267	-0.0256348	0.000305176	
6.80328	-0.0256348	0.000457764	
6.80328	-0.0262451	0.000152588	
6.80237	-0.0262451	0.000762939	
6.80359	-0.0259399	0.000152588	
6.80328	-0.0259399	0.000457764	
6.80298	-0.0262451	0.000305176	
6.80298	-0.0259399	0.000457764	
6.80298	-0.0259399	0.000152588	
6.80359	-0.0262451	0.000457764	
6.80267	-0.0259399	0.00106812	
6.80359	-0.0262451	0.000762939	
6.80328	-0.0256348	0	
6.80298	-0.0259399	0.000610352	
6.80267	-0.0259399	0.000457764	
6.80298	-0.0262451	0.000610352	
6.80237	-0.0262451	0.000152588	
6.80328	-0.0256348	0.000305176	
6.80328	-0.0265503	0	
6.80298	-0.0259399	0.000152588	
6.80267	-0.0250244	0	
6.80237	-0.0256348	0.000152588	
6.80267	-0.0262451	0.000152588	
6.80206	-0.0262451	0.00106812	
6.80298	-0.0259399	0.000305176	
6.80267	-0.0256348	0.000457764	
6.80298	-0.0256348	0.000305176	
6.80298	-0.0262451	0.000762939	
6.80328	-0.0256348	0.000305176	
6.80359	-0.0262451	0.000152588	
6.80267	-0.0256348	0	
6.80328	-0.0262451	0.000305176	
6.80298	-0.0262451	0	
6.80298	-0.0259399	0.000610352	
6.80267	-0.0265503	0.000305176	
6.80267	-0.0262451	0.000457764	
6.80328	-0.0259399	0.000610352	
6.80298	-0.0253296	0.000610352	
6.80328	-0.0262451	0.000457764	
6.80298	-0.0262451	0.000305176	
6.80359	-0.0256348	0.000305176	
6.80328	-0.0259399	0.000457764	
6.80298	-0.0259399	0	
6.80328	-0.0265503	0.000762939	
6.80267	-0.0262451	0.000305176	
6.80298	-0.0259399	0.000152588	
6.80328	-0.0256348	0.000610352	
6.80298	-0.0256348	0.000152588	
6.80267	-0.0256348	0.000152588	
6.80328	-0.0259399	0.000305176	
6.80298	-0.0259399	0.000610352	
6.80267	-0.0256348	0.000457764	
6.80328	-0.0256348	0	
6.80237	-0.022583	0.000305176	
6.80267	-0.0213623	0.000152588	
6.80359	-0.0210571	0	
6.80267	-0.0210571	0.000152588	
6.80267	-0.0216675	0.000152588	
6.80359	-0.0210571	0.000305176	
6.80359	-0.0210571	0.000457764	
6.80237	-0.0216675	0	
6.80237	-0.0213623	0.000305176	
6.80267	-0.0213623	0.000305176	
6.80328	-0.0210571	0.000610352	
6.80237	-0.0210571	0.000610352	
6.80267	-0.0210571	0.000457764	
6.80328	-0.0213623	0.000457764	
6.80298	-0.0210571	0.000610352	
6.80267	-0.0216675	0.000457764	
6.80328	-0.0210571	0.000152588	
6.80267	-0.0213623	0	
6.80267	-0.0210571	0.000152588	
6.80267	-0.020752	0.000457764	
6.80328	-0.0210571	0.000457764	
6.80328	-0.0216675	0.000457764	
6.80328	-0.0210571	0.000305176	
6.80298	-0.0213623	0.000305176	
6.80298	-0.0213623	0.000762939	
6.80359	-0.0210571	0.000610352	
6.80359	-0.0216675	0.000152588	
6.80298	-0.0204468	0.000152588	
6.80237	-0.0177002	0.000305176	
6.80298	-0.0161743	0.000305176	
6.80267	-0.0161743	0.000152588	
6.80237	-0.0161743	0.000305176	
6.80267	-0.0158691	0.000152588	
6.80298	-0.0158691	-0.000152588	
6.80298	-0.0158691	0.000457764	
6.80267	-0.015564	0.000152588	
6.80267	-0.0164795	0.000762939	
6.80267	-0.0167847	0.000305176	
6.80359	-0.0158691	0.000610352	
6.80237	-0.0158691	0.000610352	
6.80298	-0.0161743	0.000457764	
6.80298	-0.0167847	0.000457764	
6.80298	-0.0158691	0.000305176	
6.80359	-0.0164795	-0.000152588	
6.80298	-0.0158691	0.000457764	
6.80328	-0.0161743	0.000305176	
6.80267	-0.0161743	0.000457764	
6.80267	-0.0164795	0.000152588	
6.80267	-0.0161743	0.000305176	
6.80298	-0.0167847	0.000457764	
6.80237	-0.0158691	0.000305176	
6.80267	-0.0164795	0.000152588	
6.80328	-0.0161743	0.000610352	
6.80267	-0.0161743	0.000305176	
6.80267	-0.0164795	0.000457764	
6.80267	-0.0161743	0.000457764	
6.80267	-0.0161743	0.000305176	
6.80298	-0.0158691	0	
6.80267	-0.0161743	0	
6.80267	-0.0128174	0.000457764	
6.80267	-0.0112915	0.000305176	
6.80267	-0.0106812	0.000610352	
6.80328	-0.0109863	0.000610352	
6.80267	-0.0112915	0.000457764	
6.80267	-0.0109863	0.000762939	
6.80267	-0.0109863	0.000457764	
6.80298	-0.0106812	0.000305176	
6.80267	-0.0109863	0.000610352	
6.80298	-0.0109863	0.000457764	
6.80267	-0.0115967	0.000762939	
6.80298	-0.0109863	0.000152588	
6.80298	-0.0119019	0.000152588	
6.80298	-0.0112915	0.000305176	
6.80237	-0.0112915	0	
6.80267	-0.0115967	0.000457764	
6.80298	-0.0109863	0.000305176	
6.80267	-0.0112915	0.000457764	
6.80328	-0.0109863	0.000762939	
6.80298	-0.0106812	0.000152588	
6.80298	-0.0109863	0.000152588	
6.80298	-0.0109863	0	
6.80267	-0.0112915	0.000762939	
6.80359	-0.0109863	0.000152588	
6.80298	-0.0112915	0	
6.80298	-0.0115967	0.000305176	
6.80298	-0.0112915	0	
6.80267	-0.0119019	0.000610352	
6.80298	-0.0112915	0.000457764	
6.80298	-0.0106812	0.000152588	
6.80267	-0.0115967	0.000305176	
6.80267	-0.0109863	0.000152588	
6.80267	-0.010376	0.000457764	
6.80298	-0.0109863	0.000457764	
6.80267	-0.0115967	0.000610352	
6.80298	-0.0109863	0.000457764	
6.80267	-0.0115967	0.000457764	
6.80267	-0.0109863	0.000152588	
6.80359	-0.00762939	0.000305176	
6.80328	-0.00701904	0.000305176	
6.80267	-0.00671387	0.000457764	
6.80267	-0.00640869	0.000152588	
6.80237	-0.00610352	0.000305176	
6.80298	-0.00579834	0.000305176	
6.80267	-0.00671387	0.000305176	
6.80298	-0.00640869	0.000762939	
6.80298	-0.00610352	0.000610352	
6.80237	-0.00610352	0.000152588	
6.80267	-0.00579834	0.000915527	
6.80267	-0.00671387	0.000457764	
6.80328	-0.00610352	0.000915527	
6.80237	-0.00610352	0.000457764	
6.80237	-0.00640869	0.000457764	
6.80237	-0.00701904	0.000305176	
6.80328	-0.00610352	0.000305176	
6.80206	-0.00640869	0.000457764	
6.80298	-0.00671387	0.000152588	
6.80298	-0.00640869	0.000152588	
6.80267	-0.00671387	0.000915527	
6.80267	-0.00640869	0.000305176	
6.80267	-0.00640869	0.000457764	
6.80328	-0.00610352	-0.000152588	
6.80328	-0.00610352	0	
6.80298	-0.00640869	0.000152588	
6.80267	-0.00671387	0.000305176	
6.80267	-0.00610352	0.000152588	
6.80298	-0.00610352	0.000305176	
6.80359	-0.00640869	0	
6.80328	-0.00640869	0.000610352	
6.80267	-0.00671387	0.000152588	
6.80328	-0.00579834	0.000457764	
6.80267	-0.00640869	0.000762939	
6.80267	-0.00579834	0.000457764	
6.80298	-0.00640869	0.000457764	
6.80328	-0.00610352	0.000152588	
6.80359	-0.00579834	0.000610352	
6.80359	-0.00610352	0.000305176	
6.80328	-0.00671387	-0.000152588	
6.80298	-0.00640869	0.000457764	
6.80237	-0.00610352	0.000152588	
6.80237	-0.00610352	0.000457764	
6.80237	-0.00640869	0.000152588	
6.80298	-0.00671387	0.000457764	
6.80298	-0.00610352	0.000305176	
6.80298	-0.00610352	0.000610352	
6.80328	-0.00640869	0.000457764	
6.80298	-0.00671387	0.000305176	
6.80298	-0.00549316	0.000152588	
6.80328	-0.00671387	0.000762939	
6.80298	-0.00671387	0.000305176	
6.80267	-0.00549316	0.000457764	
6.80267	-0.00610352	0.000152588	
6.80328	-0.00640869	0.000152588	
6.80328	-0.00640869	0.000152588	
6.80267	-0.00610352	0	
6.80267	-0.00366211	0.000152588	
6.80298	-0.0012207	0.000457764	
6.80267	-0.00152588	0.000152588	
6.80298	-0.000915527	0.0012207	
6.80328	-0.000915527	0.000457764	
6.80298	-0.00152588	0.000305176	
6.80237	-0.00183105	0.000457764	
6.80298	-0.0012207	0	
6.80298	-0.000915527	0.000457764	
6.80328	-0.0012207	0.000305176	
6.80328	-0.0012207	0.000305176	
6.80267	-0.000610352	0.000305176	
6.80298	-0.00213623	-0.000152588	
6.80267	-0.00152588	0.000610352	
6.80267	-0.0012207	0	
6.80298	-0.00152588	0.000762939	
6.80267	-0.0012207	0.000457764	
6.80298	-0.000610352	0.000305176	
6.80298	-0.00152588	0.000305176	
6.80298	-0.00213623	0.000457764	
6.80359	-0.00152588	0.000305176	
6.80359	-0.00183105	0.000305176	
6.80328	-0.00183105	-0.000152588	
6.80328	-0.0012207	0.000152588	
6.80328	-0.0012207	0	
6.80237	-0.00152588	0.000305176	
6.80267	-0.00183105	0.000305176	
6.80298	-0.00152588	0.000457764	
6.80267	-0.00152588	0.000152588	
6.80267	-0.00183105	0.000457764	
6.80298	-0.000610352	0.000457764	
6.80298	-0.0012207	0.000762939	
6.80267	-0.0012207	0.000152588	
6.80267	-0.00152588	0.000915527	
6.80267	-0.00183105	0.000305176	
6.80328	-0.00152588	0.000152588	
6.80267	-0.00183105	0.000152588	
6.80237	-0.00152588	0	
6.80328	-0.00213623	0.000457764	
6.80267	-0.0012207	0.000305176	
6.80328	-0.00213623	0.000152588	
6.80298	-0.0012207	0.000305176	
6.80237	-0.0012207	0	
6.80298	-0.00152588	0.000915527	
6.80328	-0.000915527	0.000610352	
6.80267	-0.00152588	0.000457764	
6.80298	-0.00152588	0.000152588	
6.80328	-0.00213623	0.000457764	
6.80328	-0.00488281	0.000457764	
6.80298	-0.00610352	0.000305176	
6.80267	-0.00671387	0.000457764	
6.80267	-0.00610352	0.000152588	
6.80267	-0.00640869	-0.000152588	
6.80298	-0.00610352	0.000457764	
6.80328	-0.00610352	0.000152588	
6.80267	-0.00640869	0.000457764	
6.80298	-0.00640869	0.000610352	
6.80298	-0.00610352	0.000457764	
6.80298	-0.00579834	0.000305176	
6.80267	-0.00549316	0.000457764	
6.80298	-0.00579834	0.000457764	
6.80359	-0.00610352	0.000305176	
6.80328	-0.00610352	-0.000152588	
6.80298	-0.00610352	0.000457764	
6.80267	-0.00671387	0.000152588	
6.80237	-0.00640869	0.000152588	
6.80267	-0.00640869	0.000152588	
6.80359	-0.00671387	0.000457764	
6.80298	-0.00610352	0.000762939	
6.80237	-0.00610352	0.000915527	
6.80328	-0.00610352	0.000762939	
6.80267	-0.00549316	0.000457764	
6.80267	-0.00610352	-0.000152588	
6.80328	-0.00640869	0.000762939	
6.80267	-0.00610352	0.000305176	
6.80328	-0.00610352	0.000457764	
6.80298	-0.00640869	0.000457764	
6.80328	-0.00671387	0.000457764	
6.80298	-0.00640869	0.000457764	
6.80267	-0.00640869	0.000457764	
6.80298	-0.00640869	0.000152588	
6.80298	-0.00579834	0.000152588	
6.80267	-0.00579834	0.000457764	
6.80298	-0.00640869	0.000762939	
6.80267	-0.00579834	0.000610352	
6.80267	-0.00579834	0.000457764	
6.80237	-0.00610352	0.000305176	
6.80267	-0.00579834	0.000152588	
6.80298	-0.00640869	0.000305176	
6.80328	-0.00671387	0.000152588	
6.80267	-0.00640869	0.000152588	
6.80359	-0.00640869	0.000152588	
6.80267	-0.00610352	0	
6.80328	-0.00671387	0.000762939	
6.80328	-0.00610352	0.000457764	
6.80328	-0.00640869	0.000457764	
6.80267	-0.00671387	0.000152588	
6.80328	-0.00610352	0.000457764	
6.80267	-0.00549316	0.000152588	
6.80328	-0.00640869	0.000305176	
6.80267	-0.00671387	0.000457764	
6.80328	-0.0106812	0.000152588	
6.80054	-0.0109863	-0.000152588	
6.7984	-0.0112915	0.000762939	
6.79779	-0.0112915	0	
6.7981	-0.0106812	0.000305176	
6.79718	-0.0109863	0.000305176	
6.7984	-0.0112915	0.000305176	
6.7981	-0.0112915	0.000152588	
6.7981	-0.0109863	0.000305176	
6.79779	-0.0115967	0.000610352	
6.79871	-0.0112915	0.000457764	
6.7984	-0.0112915	0.000152588	
6.7981	-0.0115967	0.00106812	
6.7984	-0.0109863	0.000305176	
6.79871	-0.0109863	0.000305176	
6.79718	-0.0109863	0.000152588	
6.7981	-0.0119019	0.000305176	
6.7981	-0.0112915	0	
6.79871	-0.0112915	0.000305176	
6.79871	-0.0109863	0.000305176	
6.7984	-0.0106812	0.000457764	
6.79871	-0.0112915	0.000152588	
6.7981	-0.0112915	0.000915527	
6.79718	-0.0109863	0.000610352	
6.7981	-0.0112915	0.000610352	
6.7984	-0.0115967	0.000152588	
6.7984	-0.0115967	0.000457764	
6.79779	-0.0109863	0.000457764	
6.7984	-0.0112915	0.000305176	
6.7984	-0.0112915	0.000305176	
6.79871	-0.0112915	0.000305176	
6.7984	-0.0112915	0	
6.7984	-0.0140381	0.000762939	
6.7981	-0.0164795	0.000305176	
6.7981	-0.0161743	0.000457764	
6.7984	-0.0164795	0.000457764	
6.7984	-0.0158691	0.000457764	
6.79871	-0.0164795	0.000457764	
6.7981	-0.0161743	0.000305176	
6.79871	-0.0158691	0	
6.7981	-0.015564	0.000152588	
6.79779	-0.0167847	0.000305176	
6.7981	-0.0164795	0.000457764	
6.7981	-0.0164795	0	
6.7984	-0.0158691	0.000610352	
6.7984	-0.0161743	0	
6.7981	-0.0161743	0.000457764	
6.79871	-0.0161743	0.000457764	
6.79779	-0.0164795	0.000457764	
6.79749	-0.0164795	0.000762939	
6.79871	-0.0158691	0.000610352	
6.7981	-0.0158691	0	
6.7981	-0.0164795	0.000915527	
6.79779	-0.0158691	0.000305176	
6.7984	-0.0161743	0.000152588	
6.79779	-0.0161743	-0.000152588	
6.7981	-0.0167847	0.000610352	
6.7984	-0.0164795	0.000152588	
6.7984	-0.0167847	0.000152588	
6.7981	-0.0195313	0.000457764	
6.79871	-0.0201416	0.000457764	
6.7981	-0.0216675	0.000305176	
6.7981	-0.020752	0.00106812	
6.79779	-0.0213623	0.000915527	
6.79871	-0.0210571	0.000305176	
6.79657	-0.0213623	0.000152588	
6.79382	-0.0216675	0.000305176	
6.79352	-0.0213623	0.000457764	
6.79291	-0.0216675	0	
6.79291	-0.0213623	0.000457764	
6.79321	-0.0213623	0.000152588	
6.79352	-0.020752	0	
6.7923	-0.0210571	0.000915527	
6.79321	-0.0213623	0.000305176	
6.79321	-0.020752	0.000457764	
6.79291	-0.0210571	0.000305176	
6.79352	-0.0213623	0.000305176	
6.79321	-0.0216675	0.000457764	
6.79321	-0.0216675	0.000457764	
6.79321	-0.020752	0.000457764	
6.79291	-0.020752	0.000457764	
6.79291	-0.0210571	-0.000305176	
6.79321	-0.0213623	0.000457764	
6.79352	-0.0241089	0.000152588	
6.79321	-0.0265503	0	
6.79352	-0.0259399	0.000152588	
6.79291	-0.0256348	0.000152588	
6.79352	-0.0265503	0.000457764	
6.79352	-0.0268555	0.000457764	
6.79321	-0.0262451	0.000762939	
6.7926	-0.0256348	0.000610352	
6.79321	-0.0262451	0.000152588	
6.79321	-0.0259399	0.000915527	
6.79352	-0.0259399	0.000152588	
6.79352	-0.0256348	0.000305176	
6.79291	-0.0259399	0	
6.79352	-0.0259399	0.000610352	
6.79382	-0.0259399	-0.000152588	
6.79321	-0.0259399	0.000152588	
6.79321	-0.0262451	0.000305176	
6.79321	-0.0256348	0.000305176	
6.79321	-0.0259399	0	
6.79291	-0.0262451	0.00106812	
6.79352	-0.0262451	0.000457764	
6.79321	-0.0268555	0.000457764	
6.79321	-0.0289917	0.000610352	
6.79352	-0.0308228	0.000305176	
6.79321	-0.0311279	0.000305176	
6.79321	-0.0305176	0.000152588	
6.79077	-0.0305176	0.000152588	
6.78955	-0.0308228	0.000305176	
6.78833	-0.0308228	0	
6.78833	-0.0314331	0.000305176	
6.78864	-0.0311279	0.000762939	
6.78802	-0.0311279	0.000457764	
6.78802	-0.0302124	0.000457764	
6.78833	-0.0305176	0.000457764	
6.78894	-0.0311279	0.000457764	
6.78772	-0.0302124	0.000457764	
6.78772	-0.0308228	0.000457764	
6.78833	-0.0311279	0.000305176	
6.78802	-0.0311279	0.000305176	
6.78864	-0.0308228	0	
6.78833	-0.0314331	0.000610352	
6.78802	-0.0311279	0.000305176	
6.78833	-0.0308228	0.000305176	
6.78802	-0.0311279	-0.000152588	
6.78864	-0.0308228	0.000457764	
6.78802	-0.0308228	0.000457764	
6.78894	-0.0332642	0.000610352	
6.78894	-0.0354004	0.000457764	
6.78864	-0.0357056	0.000610352	
6.78833	-0.0363159	0.000305176	
6.78833	-0.0357056	0.000762939	
6.78894	-0.0357056	0.000457764	
6.78894	-0.0357056	0.000305176	
6.78833	-0.0357056	0.000152588	
6.78864	-0.0360107	0.000610352	
6.78864	-0.0360107	0.000762939	
6.78864	-0.0354004	0.000305176	
6.78802	-0.0354004	0.000305176	
6.78864	-0.0354004	0.000152588	
6.78864	-0.0354004	0.000152588	
6.78864	-0.0360107	0.0012207	
6.78864	-0.0360107	0.000610352	
6.78619	-0.0357056	0.000457764	
6.78406	-0.0360107	0.000457764	
6.78345	-0.0357056	0.000457764	
6.78345	-0.0357056	-0.000152588	
6.78375	-0.0357056	0.000305176	
6.78284	-0.0360107	0.000305176	
6.78345	-0.0363159	0.000152588	
6.78314	-0.0387573	-0.000152588	
6.78314	-0.039978	0.000610352	
6.78345	-0.0411987	0.000152588	
6.78314	-0.0405884	0.000610352	
6.78345	-0.039978	0.000457764	
6.78345	-0.0405884	0.000305176	
6.78406	-0.0411987	0	
6.78314	-0.0405884	0.000762939	
6.78345	-0.0408936	0.000457764	
6.78314	-0.0405884	0.000457764	
6.78345	-0.0408936	-0.000305176	
6.78284	-0.0415039	0.000610352	
6.78314	-0.0408936	0.000610352	
6.78375	-0.0411987	0.000457764	
6.78375	-0.0411987	0.000152588	
6.78345	-0.0408936	0.000305176	
6.78345	-0.0415039	0.000762939	
6.78375	-0.0402832	0.000610352	
6.78406	-0.0405884	0.000457764	
6.78375	-0.0405884	0.000610352	
6.78406	-0.0402832	0.000305176	
6.78375	-0.0402832	0.000610352	
6.78375	-0.0402832	0.000457764	
6.78345	-0.0411987	0.000305176	
6.78101	-0.0405884	0	
6.77887	-0.0411987	0.000152588	
6.77795	-0.0442505	0.000457764	
6.77826	-0.045166	0.000610352	
6.77765	-0.045166	0.000152588	
6.77856	-0.0457764	0.000457764	
6.77856	-0.0454712	0.000305176	
6.77826	-0.0454712	0.000915527	
6.77826	-0.045166	0.000457764	
6.77795	-0.0460815	0.000457764	
6.77795	-0.0457764	0.000457764	
6.77826	-0.0460815	0.000305176	
6.77856	-0.0457764	0.000457764	
6.77826	-0.0454712	0.000305176	
6.77826	-0.0460815	0.000305176	
6.77826	-0.0445557	0.000152588	
6.77826	-0.0457764	-0.000152588	
6.77826	-0.0454712	0.000610352	
6.77826	-0.0457764	0.000305176	
6.77826	-0.045166	0.000457764	
6.77917	-0.0454712	0.000457764	
6.77856	-0.0454712	0.000305176	
6.77917	-0.0457764	0.000305176	
6.77917	-0.0454712	0.000457764	
6.77826	-0.0457764	0.000457764	
6.77826	-0.0457764	0.000610352	
6.77795	-0.045166	-0.000305176	
6.77826	-0.045166	0.000457764	
6.77612	-0.0457764	0.000457764	
6.77429	-0.0485229	0.000152588	
6.77429	-0.0506592	0.000457764	
6.77399	-0.050354	0.000305176	
6.77338	-0.0506592	0.000610352	
6.77399	-0.050354	0.000457764	
6.77368	-0.050354	0.000762939	
6.77368	-0.0506592	0.000457764	
6.77338	-0.0506592	0	
6.77307	-0.0506592	0.000457764	
6.77368	-0.0506592	0.000610352	
6.77368	-0.0509644	0	
6.77338	-0.0506592	0.000457764	
6.77307	-0.0506592	0.000305176	
6.77338	-0.050354	0.000457764	
6.77368	-0.0500488	0.000305176	
6.77277	-0.050354	0.000457764	
6.77307	-0.0506592	0.000610352	
6.77338	-0.0506592	0.000152588	
6.77368	-0.0506592	0.00106812	
6.77338	-0.0509644	0.000457764	
6.77307	-0.0506592	0	
6.77399	-0.050354	0.000305176	
6.77429	-0.0506592	0.000457764	
6.77185	-0.050354	0.000457764	
6.7691	-0.0509644	0.000305176	
6.76819	-0.0506592	0.000457764	
6.76819	-0.050354	0.000305176	
6.7688	-0.0497437	-0.000152588	
6.7691	-0.050354	0.000457764	
6.7688	-0.0506592	0.000762939	
6.76849	-0.0500488	0.000610352	
6.7688	-0.0512695	0.000457764	
6.76819	-0.0531006	0.000305176	
6.7691	-0.0549316	0.000305176	
6.76819	-0.0552368	0.000762939	
6.7688	-0.0552368	0.000610352	
6.7688	-0.055542	0.000457764	
6.76849	-0.055542	-0.000152588	
6.76849	-0.0552368	0.000305176	
6.7691	-0.055542	0.000152588	
6.76819	-0.0561523	0.000152588	
6.7688	-0.0558472	0.000305176	
6.76849	-0.0552368	0.000457764	
6.76849	-0.055542	0.000457764	
6.76849	-0.0552368	0.000457764	
6.7691	-0.055542	0.000610352	
6.76605	-0.0558472	0.000457764	
6.76453	-0.0549316	0.000152588	
6.76453	-0.055542	0.000915527	
6.76361	-0.0552368	0.000457764	
6.763	-0.055542	0	
6.76392	-0.055542	0.000305176	
6.763	-0.0552368	0.000305176	
6.76392	-0.055542	0.000610352	
6.76392	-0.0552368	0.000152588	
6.76422	-0.0552368	0.000457764	
6.763	-0.055542	0.000305176	
6.76361	-0.0558472	0	
6.76361	-0.0558472	0.00106812	
6.76361	-0.0552368	0.000610352	
6.76361	-0.0558472	0.000457764	
6.76361	-0.0552368	0.000305176	
6.76361	-0.0558472	0.000305176	
6.76331	-0.0549316	0.000305176	
6.76361	-0.0552368	-0.000152588	
6.763	-0.0558472	0	
6.76392	-0.0552368	0.000457764	
6.76117	-0.0558472	0	
6.75964	-0.055542	0.000305176	
6.75903	-0.0558472	0.000305176	
6.75781	-0.0585938	0.000152588	
6.75873	-0.0598145	0.000457764	
6.75842	-0.06073	0.000152588	
6.75842	-0.0601196	0.000457764	
6.75934	-0.0598145	0.000305176	
6.75934	-0.0598145	0.000152588	
6.75842	-0.0604248	0.000457764	
6.75842	-0.06073	-0.000152588	
6.75903	-0.06073	0.000457764	
6.75934	-0.0598145	0.000305176	
6.75903	-0.0604248	0.000305176	
6.75903	-0.0604248	0.000457764	
6.75903	-0.0601196	0.000305176	
6.75903	-0.06073	0.000457764	
6.75873	-0.0598145	0.000457764	
6.75934	-0.0601196	0.000610352	
6.75659	-0.0604248	0.000457764	
6.75415	-0.0604248	-0.000152588	
6.75415	-0.0601196	0.000610352	
6.75354	-0.0604248	0.000457764	
6.75293	-0.0604248	0.000305176	
6.75293	-0.0604248	0.000305176	
6.75354	-0.0598145	0.000152588	
6.75446	-0.06073	0.000457764	
6.75323	-0.0598145	0.000305176	
6.75323	-0.06073	0	
6.75354	-0.0598145	0.000457764	
6.75354	-0.0604248	0.000152588	
6.75385	-0.0601196	0.000457764	
6.75354	-0.06073	0.000152588	
6.75385	-0.0604248	0	
6.75415	-0.0595093	0.000305176	
6.75415	-0.0604248	0.000457764	
6.75385	-0.0604248	0.000152588	
6.75201	-0.0610352	0.000305176	
6.74957	-0.0604248	0.000305176	
6.74957	-0.06073	0.000305176	
6.74866	-0.0601196	-0.000152588	
6.74835	-0.0604248	0.000457764	
6.74927	-0.0604248	0.000152588	
6.74896	-0.0601196	0.000610352	
6.74927	-0.06073	0.000305176	
6.74927	-0.0598145	0.000762939	
6.74866	-0.0598145	0.000305176	
6.74927	-0.0604248	0.000305176	
6.74835	-0.06073	0.000305176	
6.74927	-0.0604248	0.000305176	
6.74927	-0.06073	-0.000152588	
6.74896	-0.0604248	0.000610352	
6.74896	-0.06073	0.000457764	
6.74896	-0.0604248	0	
6.74896	-0.06073	0	
6.74652	-0.0598145	0.000610352	
6.745	-0.0604248	0.000457764	
6.74438	-0.0601196	0.000152588	
6.74377	-0.0604248	0.000305176	
6.74377	-0.06073	0.000305176	
6.74377	-0.0604248	0	
6.74438	-0.0598145	0.000762939	
6.74438	-0.0604248	0.000457764	
6.74438	-0.0601196	-0.000152588	
6.74408	-0.0604248	0.000305176	
6.74469	-0.06073	0.000457764	
6.74408	-0.0601196	0.000305176	
6.74438	-0.0613403	0.000305176	
6.745	-0.0601196	0.000305176	
6.74438	-0.06073	0.000457764	
6.74438	-0.06073	0.000457764	
6.74347	-0.0604248	0.000915527	
6.74194	-0.0592041	0.000152588	
6.7395	-0.06073	0.000152588	
6.7395	-0.06073	0.000305176	
6.73859	-0.0601196	0.000305176	
6.7392	-0.06073	0.000457764	
6.73889	-0.0601196	0.000152588	
6.73889	-0.0604248	0.000152588	
6.7392	-0.0604248	0.000457764	
6.7392	-0.06073	-0.000152588	
6.73859	-0.0610352	0.000610352	
6.73981	-0.0601196	0.000457764	
6.7395	-0.0604248	0.000305176	
6.73981	-0.0601196	0.000457764	
6.7395	-0.0604248	0.000305176	
6.7392	-0.0604248	0.000457764	
6.7392	-0.0601196	0.000152588	
6.73645	-0.0601196	0.000152588	
6.73523	-0.0598145	0.000305176	
6.73401	-0.0601196	-0.000152588	
6.73431	-0.0567627	0.000305176	
6.73431	-0.0549316	0.000457764	
6.73431	-0.0549316	0.000152588	
6.73431	-0.0552368	0.000457764	
6.73401	-0.055542	0.000457764	
6.73401	-0.0552368	0.000610352	
6.73431	-0.055542	0.000457764	
6.73401	-0.0552368	0.000305176	
6.7337	-0.0552368	0.000457764	
6.73401	-0.0558472	0	
6.73401	-0.0549316	0.000762939	
6.7337	-0.0552368	0.000610352	
6.73401	-0.0558472	0.000305176	
6.73218	-0.0549316	0	
6.73004	-0.0558472	0.000457764	
6.72882	-0.0552368	0.000152588	
6.72913	-0.0518799	0.000457764	
6.72913	-0.0512695	0.000915527	
6.72943	-0.0509644	0.000610352	
6.72882	-0.050354	0	
6.72943	-0.0491333	0.00106812	
6.72913	-0.0506592	0.000305176	
6.72913	-0.0509644	0.000305176	
6.72882	-0.0509644	0.000152588	
6.72943	-0.0500488	0.000305176	
6.72913	-0.050354	0.000305176	
6.72852	-0.050354	0.000457764	
6.72943	-0.0466919	0	
6.72699	-0.045166	0.000305176	
6.72424	-0.0460815	-0.000152588	
6.72424	-0.0460815	0.000457764	
6.72455	-0.0454712	0.000457764	
6.72363	-0.0454712	0.000152588	
6.72424	-0.0457764	0.000152588	
6.72424	-0.0448608	0.000762939	
6.72363	-0.0454712	0.000305176	
6.72455	-0.0427246	0.000610352	
6.72394	-0.0411987	0.000457764	
6.72455	-0.0402832	0.000152588	
6.72455	-0.0408936	-0.000457764	
6.72424	-0.0402832	0.000152588	
6.72394	-0.0402832	0.000610352	
6.72394	-0.0405884	0.000457764	
6.7215	-0.0405884	0.000457764	
6.72058	-0.0372314	0.000305176	
6.71844	-0.0357056	0.000305176	
6.71875	-0.0354004	0.000457764	
6.71906	-0.0357056	0.000305176	
6.71906	-0.0357056	0.000152588	
6.71936	-0.0357056	0.000152588	
6.71906	-0.0323486	0.000915527	
6.71936	-0.0305176	0.000457764	
6.71844	-0.0314331	0.000152588	
6.71906	-0.0308228	0.000152588	
6.71936	-0.0305176	0.000152588	
6.71997	-0.0302124	0.000610352	
6.71936	-0.027771	0	
6.71936	-0.0256348	0.000152588	
6.71722	-0.0259399	0.000152588	
6.71509	-0.0259399	0.000305176	
6.71448	-0.0265503	0.00106812	
6.71448	-0.0265503	0.000457764	
6.71448	-0.0231934	0.000152588	
6.71417	-0.0210571	0.000610352	
6.71448	-0.020752	0.000457764	
6.71387	-0.0216675	0.000152588	
6.71387	-0.0213623	0.000305176	
6.71387	-0.0210571	0.000152588	
6.71478	-0.0177002	0	
6.71417	-0.015564	-0.000152588	
6.71417	-0.0161743	0.000610352	
6.71448	-0.0161743	0.000610352	
6.71204	-0.0158691	0.000152588	
6.71051	-0.0125122	0.000457764	
6.70959	-0.0115967	0.000610352	
6.7099	-0.0109863	0.000305176	
6.7099	-0.010376	0.000610352	
6.70929	-0.00762939	0.000457764	
6.70959	-0.00640869	0.000305176	
6.7099	-0.00610352	-0.000152588	
6.70959	-0.00610352	0.000457764	
6.70929	-0.00579834	0.000457764	
6.70959	-0.00335693	0.000457764	
6.71021	-0.00183105	0.000305176	
6.7099	-0.00152588	0.000305176	
6.7099	-0.000915527	0.000305176	
6.70746	0.00152588	0.000457764	
6.70502	0.00335693	0.000457764	
6.7041	0.00305176	0.000457764	
6.70471	0.00274658	0.000152588	
6.70441	0.00396729	0.000610352	
6.70471	0.00640869	0.000457764	
6.70441	0.00793457	0.000305176	
6.70471	0.00793457	0.000152588	
6.70532	0.00793457	0.000152588	
6.7041	0.0119019	0.000305176	
6.70441	0.0125122	0.000152588	
6.7041	0.0131226	0.000305176	
6.70349	0.0131226	0.000305176	
6.70502	0.0164795	0.000305176	
6.70227	0.0177002	0.00106812	
6.69983	0.0180054	0.000610352	
6.70013	0.0186157	0.000152588	
6.69952	0.0216675	0.000305176	
6.69922	0.022583	0.000457764	
6.69952	0.0231934	0.000457764	
6.69983	0.0231934	0.000305176	
6.69983	0.0262451	0.000610352	
6.69983	0.0271606	0	
6.69952	0.0280762	-0.000152588	
6.69952	0.0280762	0.000762939	
6.69922	0.0314331	0	
6.69952	0.0320435	0.000457764	
6.70013	0.0332642	0.000457764	
6.69708	0.0363159	0.000305176	
6.69525	0.0378418	0.000457764	
6.69464	0.0378418	0	
6.69434	0.0378418	0.000610352	
6.69434	0.0405884	0.000305176	
6.69464	0.0418091	-0.000305176	
6.69434	0.0421143	0.000305176	
6.69464	0.0430298	0.000305176	
6.69525	0.0454712	0.000457764	
6.69464	0.0473022	0.000152588	
6.69342	0.0473022	0.000305176	
6.69434	0.0506592	0.000610352	
6.69434	0.0518799	0.000457764	
6.69189	0.0527954	0.000457764	
6.69067	0.0524902	0.000457764	
6.69037	0.055542	0	
6.68945	0.057373	0.000762939	
6.68945	0.0570679	0.000610352	
6.68945	0.0585938	0.000152588	
6.68976	0.0604248	0.000152588	
6.68945	0.0616455	0.000305176	
6.68945	0.0622559	0.000457764	
6.68915	0.0656128	0.000305176	
6.69006	0.0668335	0.000305176	
6.68976	0.067749	0.000305176	
6.69037	0.067749	0	
6.68701	0.0704956	0.000762939	
6.68579	0.0717163	0.000305176	
6.68488	0.0723267	0	
6.68457	0.0756836	0.000457764	
6.68488	0.0765991	0.000457764	
6.68518	0.0769043	0.000457764	
6.68457	0.0772095	0.000305176	
6.68549	0.0796509	0.000152588	
6.68488	0.0808716	0.000457764	
6.68488	0.0808716	-0.000152588	
6.68518	0.0845337	0.000610352	
6.68488	0.0863647	0.000457764	
6.68488	0.0860596	0.000305176	
6.68243	0.0866699	0.000610352	
6.6806	0.0897217	0.000152588	
6.67999	0.0912476	0.000457764	
6.67999	0.090332	0.000457764	
6.67969	0.0918579	0.000762939	
6.67999	0.0946045	0.000305176	
6.67969	0.09552	-0.000152588	
6.67908	0.0964355	0.000305176	
6.67969	0.098877	0.000152588	
6.6803	0.100403	0.000305176	
6.67969	0.101013	0.000152588	
6.67969	0.101013	0.000152588	
6.67847	0.10437	0.000305176	
6.67755	0.105896	0.000457764	
6.67603	0.106506	0.000610352	
6.67511	0.109863	0.000457764	
6.67419	0.109863	0.000152588	
6.6748	0.110474	0.000915527	
6.67542	0.111084	0.000457764	
6.67419	0.113831	0.000152588	
6.67511	0.115356	0.000152588	
6.6748	0.115662	0.000152588	
6.6748	0.115662	0.000305176	
6.6748	0.118713	0.000305176	
6.6745	0.120239	0.000305176	
6.6748	0.12085	0.000152588	
6.67236	0.12085	0.000305176	
6.67023	0.123596	0.000915527	
6.67053	0.125122	0.000152588	
6.66962	0.125427	0.000305176	
6.66931	0.126038	0.000457764	
6.66901	0.128784	0.000152588	
6.66992	0.130005	0.000457764	
6.66992	0.131226	0	
6.66931	0.133667	0.000152588	
6.67053	0.134888	0.000305176	
6.67053	0.135193	0	
6.67023	0.135498	0.000610352	
6.66718	0.135193	0.000457764	
6.66534	0.13855	0.000915527	
6.66443	0.140381	0.000762939	
6.66565	0.140381	0.000457764	
6.66534	0.140991	0.000457764	
6.66534	0.144043	0.000610352	
6.66473	0.144653	0.000305176	
6.66504	0.145264	0.000305176	
6.66443	0.145874	-0.000152588	
6.66473	0.148315	0.000457764	
6.66473	0.150146	0.000457764	
6.66382	0.150452	0.000457764	
6.6629	0.149841	0.000610352	
6.66046	0.153809	0.000610352	
6.65924	0.15564	0.000610352	
6.66016	0.154724	0.000305176	
6.66016	0.15564	0.000762939	
6.66046	0.155334	0.000457764	
6.66016	0.158386	0.000152588	
6.66016	0.158997	0.000610352	
6.66016	0.159912	0.000457764	
6.66016	0.159607	0.000762939	
6.66016	0.162964	0.000152588	
6.66077	0.163879	0.000305176	
6.65771	0.164795	0.000152588	
6.65588	0.164185	0.000152588	
6.65527	0.164185	0.000152588	
6.65466	0.168152	0.000305176	
6.65436	0.168762	0	
6.65527	0.169983	0.000762939	
6.65436	0.169373	0.000457764	
6.65436	0.169373	0.000457764	
6.65527	0.172424	0.000610352	
6.65497	0.17395	0.000305176	
6.65405	0.174255	0.000457764	
6.65466	0.174561	0.000152588	
6.65497	0.174866	0.000305176	
6.65283	0.174561	0.000305176	
6.65161	0.177307	0	
6.64978	0.179443	0.000610352	
6.64978	0.179138	0.000152588	
6.65009	0.179749	0.000305176	
6.65009	0.179138	0.000915527	
6.64978	0.180054	0.000305176	
6.64978	0.1828	0.000305176	
6.6507	0.184021	0.000305176	
6.6507	0.184021	0.000762939	
6.65039	0.184021	0.000457764	
6.64825	0.184326	-0.000152588	
6.64551	0.184937	0.000152588	
6.6449	0.187378	0.000457764	
6.64459	0.188293	0.000152588	
6.6449	0.188599	0.000152588	
6.64551	0.188904	0.000457764	
6.64459	0.188904	0.000305176	
6.6449	0.188904	0.000762939	
6.6452	0.189209	0.000762939	
6.64551	0.191956	0.000305176	
6.6452	0.193176	0.000305176	
6.64551	0.194397	0.000457764	
6.64276	0.194397	0.000610352	
6.64093	0.193787	0.000152588	
6.64001	0.193481	0.000305176	
6.63971	0.193481	0	
6.64032	0.193481	0	
6.64001	0.196838	0.000305176	
6.63971	0.198669	0.000457764	
6.64001	0.198364	0.000305176	
6.64032	0.198669	0.000152588	
6.64001	0.198669	0.000762939	
6.64093	0.198669	0.000610352	
6.64032	0.198669	0.000152588	
6.63818	0.198364	0.000457764	
6.63605	0.19928	0.000305176	
6.63574	0.202332	0.000152588	
6.63513	0.203552	0.000457764	
6.63574	0.204163	0.000305176	
6.63574	0.203857	0	
6.63452	0.204163	0	
6.63574	0.204163	0.000610352	
6.63605	0.203552	0.000457764	
6.63574	0.203857	0.000457764	
6.63483	0.203552	0.000610352	
6.63544	0.203857	0.000457764	
6.633	0.204163	0.000152588	
6.63116	0.204468	0.000152588	
6.63055	0.20752	0.000305176	
6.63055	0.20813	0.000457764	
6.63025	0.208435	-0.000152588	
6.63086	0.209045	0.000305176	
6.63055	0.20874	0.000152588	
6.62994	0.208435	0.000457764	
6.63055	0.208435	0.000152588	
6.63025	0.208435	0.000305176	
6.63055	0.208435	0.000152588	
6.62842	0.209045	0.000152588	
6.62628	0.208435	0.000610352	
6.62567	0.208435	0.000152588	
6.62567	0.20874	0	
6.62598	0.208435	0.000915527	
6.62598	0.209045	0.000610352	
6.62537	0.20874	0.000305176	
6.62476	0.209045	0	
6.62476	0.20874	0.000152588	
6.62506	0.20874	0.000457764	
6.62506	0.20874	0.000305176	
6.62537	0.208435	0.000457764	
6.62323	0.20874	0.000610352	
6.62079	0.20874	0.000152588	
6.62018	0.20813	0.00106812	
6.62079	0.20813	0.000457764	
6.62048	0.20874	-0.000152588	
6.62048	0.208435	0.000610352	
6.62048	0.209045	0.000457764	
6.62109	0.20874	0	
6.62048	0.209045	0.000305176	
6.61987	0.209045	0.000152588	
6.62048	0.209045	0.000152588	
6.61865	0.20813	0	
6.61621	0.209045	0.000610352	
6.6156	0.20813	0.000610352	
6.61591	0.20874	0.000457764	
6.61499	0.20874	0.000610352	
6.6153	0.20874	0.000305176	
6.6153	0.20874	0.000305176	
6.6156	0.20874	0.000152588	
6.61591	0.208435	0.000305176	
6.6156	0.208435	0.000610352	
6.6156	0.208435	0	
6.61621	0.20874	0.000610352	
6.61346	0.209045	0	
6.61072	0.20874	0.000305176	
6.61133	0.20813	0.000610352	
6.61072	0.209045	0.000457764	
6.61041	0.208435	0.000457764	
6.61041	0.209351	0.000305176	
6.61072	0.20874	0.000762939	
6.61072	0.209045	0.000457764	
6.61041	0.209045	0	
6.61011	0.20813	0.000762939	
6.61041	0.20874	0.000305176	
6.60828	0.208435	0	
6.60645	0.209351	0.000305176	
6.60645	0.208435	0	
6.60583	0.205688	0.000610352	
6.60553	0.204163	0.000152588	
6.60645	0.203857	0.000305176	
6.60553	0.204163	0.000457764	
6.60461	0.203857	0.000305176	
6.60522	0.203857	0.000762939	
6.60522	0.204468	0.000457764	
6.60553	0.203857	0.000152588	
6.60553	0.203552	0.000305176	
6.60339	0.203247	0.000610352	
6.60126	0.203857	0.000152588	
6.60126	0.203552	0.000305176	
6.60065	0.203857	0.000457764	
6.60034	0.19989	0.000152588	
6.60065	0.198975	0	
6.60095	0.198669	0.000762939	
6.60095	0.198975	0.000457764	
6.60126	0.198975	0.000152588	
6.60065	0.198669	0.000305176	
6.60095	0.198975	0.000305176	
6.59882	0.198669	0.000152588	
6.59698	0.198669	0.000305176	
6.59546	0.198669	0.000305176	
6.59546	0.198669	0.000610352	
6.59607	0.195313	-0.000305176	
6.59637	0.194397	0.000610352	
6.59546	0.193481	0.000152588	
6.59607	0.193787	0.000915527	
6.59576	0.194092	0.000152588	
6.59546	0.193481	0.000305176	
6.59546	0.193787	0.000762939	
6.59363	0.193481	0.000762939	
6.59149	0.193176	0.000762939	
6.5921	0.190735	0.000762939	
6.59119	0.188904	-0.000305176	
6.59088	0.188904	0.000762939	
6.59088	0.188904	0.000457764	
6.59119	0.189209	0.000152588	
6.59088	0.188904	0	
6.59088	0.189209	0.000305176	
6.59119	0.188904	0.000305176	
6.59119	0.185852	0.000152588	
6.59119	0.184021	0.000305176	
6.58936	0.183716	0.000152588	
6.5863	0.184326	0.000152588	
6.5863	0.184326	0.00106812	
6.58569	0.184326	0.000457764	
6.58539	0.183716	0.000457764	
6.58569	0.180359	0.000457764	
6.58539	0.178833	0.000457764	
6.58569	0.178833	0.000305176	
6.58569	0.179749	0.000305176	
6.5863	0.179443	0.000152588	
6.586	0.178833	0.000152588	
6.58417	0.179138	-0.000152588	
6.58142	0.176392	0.000457764	
6.58112	0.173645	0.000457764	
6.58112	0.173645	0.000152588	
6.58112	0.174866	0.000457764	
6.58112	0.174561	0.000457764	
6.58081	0.174255	0.000152588	
6.58081	0.17395	0.000152588	
6.58081	0.170898	0.000457764	
6.58142	0.169678	0.000457764	
6.58112	0.169373	-0.000152588	
6.57928	0.169373	0.000457764	
6.57684	0.169373	0.000152588	
6.57623	0.169067	0.000305176	
6.57593	0.166016	0.000152588	
6.57623	0.163879	0.000305176	
6.57593	0.164795	0.000457764	
6.57562	0.163879	0.000610352	
6.57593	0.164185	0.000610352	
6.57623	0.163879	0.000305176	
6.57532	0.160828	0	
6.57684	0.159607	0.000915527	
6.57379	0.159912	0.000305176	
6.57166	0.159607	0.000152588	
6.57074	0.159302	0.000610352	
6.57135	0.156555	0.000152588	
6.57104	0.155334	0.000457764	
6.57166	0.154724	0.000457764	
6.57104	0.154724	0.000610352	
6.57135	0.154419	0.000762939	
6.57104	0.154419	0.000305176	
6.57135	0.151672	0.000915527	
6.57227	0.150452	0.000457764	
6.5683	0.150452	0.000305176	
6.56616	0.149536	0.000305176	
6.56647	0.149536	0.000610352	
6.56647	0.147095	0.000457764	
6.56647	0.145569	0	
6.56647	0.144958	0.000152588	
6.56677	0.145264	0.000457764	
6.56586	0.145569	0.000152588	
6.56647	0.144958	0.000305176	
6.56555	0.141296	0.000457764	
6.56677	0.140381	0.000305176	
6.56372	0.139771	0.000457764	
6.56281	0.140381	0.000305176	
6.56158	0.140381	0.000152588	
6.56097	0.137634	0.000305176	
6.56097	0.135498	0.000457764	
6.56158	0.135498	0	
6.56097	0.135193	0	
6.56128	0.134888	0.000305176	
6.56128	0.131836	0.000152588	
6.56067	0.13031	0.000152588	
6.56128	0.13031	0.000457764	
6.56097	0.13031	0.000305176	
6.55945	0.130005	0.000305176	
6.55701	0.126953	0.000457764	
6.55609	0.126038	0.000915527	
6.5564	0.125732	0.000305176	
6.5567	0.125427	-0.000152588	
6.5567	0.125427	0.000915527	
6.55579	0.122375	0.000305176	
6.5564	0.12085	0.000152588	
6.5567	0.12085	0.000152588	
6.5564	0.119934	0.000305176	
6.55609	0.117188	0.000457764	
6.55426	0.115051	0.000457764	
6.55243	0.115967	0.000152588	
6.55151	0.115356	0.000457764	
6.55151	0.115051	0.000457764	
6.55182	0.11261	0.0012207	
6.55151	0.110168	0.000305176	
6.5509	0.110474	0.000152588	
6.55151	0.110779	0.000152588	
6.55151	0.110474	0.000305176	
6.55182	0.107117	0.000305176	
6.5509	0.106201	0.000305176	
6.54846	0.105591	0.000610352	
6.54816	0.105896	0.000457764	
6.54694	0.105896	-0.000152588	
6.54663	0.102539	0.000457764	
6.54694	0.100403	0.000305176	
6.54694	0.101318	0.000457764	
6.54633	0.100708	0.000762939	
6.54633	0.0973511	0.000457764	
6.54694	0.0961304	0.000762939	
6.54633	0.0949097	0.000152588	
6.54633	0.0961304	0.000457764	
6.54449	0.0952148	0.000305176	
6.54266	0.0927734	0	
6.54175	0.0909424	0.000457764	
6.54144	0.0909424	0.000457764	
6.54083	0.0912476	0	
6.54175	0.0906372	0.000305176	
6.54144	0.0872803	0.000305176	
6.54205	0.0863647	0.000762939	
6.54205	0.0863647	0.000610352	
6.54144	0.0857544	0.000457764	
6.54083	0.0830078	0.000610352	
6.539	0.0808716	0.000152588	
6.53687	0.0808716	0.000762939	
6.53717	0.0811768	0.000610352	
6.53595	0.0808716	0.000457764	
6.53625	0.0784302	0.000152588	
6.53625	0.0772095	0.000762939	
6.53656	0.0769043	0.000152588	
6.53687	0.0772095	0	
6.53656	0.0769043	0.000152588	
6.53656	0.0741577	0.000305176	
6.53656	0.0723267	-0.000152588	
6.53412	0.0723267	0.000915527	
6.53229	0.0717163	0.000457764	
6.53168	0.0689697	-0.000152588	
6.53168	0.0674438	0.000305176	
6.53168	0.0668335	0.000457764	
6.53168	0.0674438	0.000457764	
6.53168	0.0668335	0.000152588	
6.53168	0.0637817	0.000152588	
6.53198	0.0631714	0.000305176	
6.53137	0.0619507	0	
6.53229	0.0622559	0.000457764	
6.52924	0.0619507	0.000457764	
6.52679	0.0588989	0.000457764	
6.52679	0.0576782	0.000610352	
6.52649	0.0567627	0.000457764	
6.52679	0.057373	0.000610352	
6.52679	0.057373	0.000457764	
6.5271	0.0540161	0.000305176	
6.52649	0.0527954	0.000915527	
6.52679	0.0521851	0	
6.5271	0.0521851	0.000457764	
6.52649	0.0497437	0.000610352	
6.52405	0.0476074	0.000152588	
6.52222	0.0479126	0.000457764	
6.52191	0.0473022	0.000457764	
6.5213	0.0476074	0.000305176	
6.521	0.0442505	0.000610352	
6.52161	0.0424194	0.000457764	
6.52161	0.0427246	0.000457764	
6.52161	0.0427246	-0.000152588	
6.52252	0.0427246	0.000915527	
6.52161	0.0393677	0.000762939	
6.52222	0.0375366	0	
6.51917	0.0378418	0.000305176	
6.51764	0.0378418	0.000305176	
6.51703	0.0369263	0.000610352	
6.51672	0.03479	0.000152588	
6.51672	0.032959	0.000152588	
6.51672	0.0323486	0.000305176	
6.51764	0.032959	0	
6.51642	0.0326538	0.000915527	
6.51611	0.0320435	0.000305176	
6.51642	0.0296021	0	
6.51672	0.0280762	0.000305176	
6.51489	0.0271606	0.000762939	
6.51276	0.0274658	0.000152588	
6.51154	0.0265503	0	
6.51215	0.0247192	0.000305176	
6.51184	0.0231934	0.000457764	
6.51154	0.0231934	-0.000152588	
6.51215	0.022583	0.000610352	
6.51154	0.0228882	0	
6.51154	0.0192261	0.000305176	
6.51184	0.0183105	0.000457764	
6.51154	0.0180054	0.000762939	
6.51215	0.0177002	0.000457764	
6.5097	0.0180054	0.000762939	
6.50757	0.0177002	0.000457764	
6.50696	0.0149536	0.000762939	
6.50665	0.0134277	0	
6.50726	0.0128174	0.000610352	
6.50696	0.0134277	0.000152588	
6.50635	0.0128174	0.000152588	
6.50696	0.010376	0.000457764	
6.50726	0.00854492	0.000610352	
6.50665	0.00793457	0.000305176	
6.50635	0.00793457	0.000457764	
6.50482	0.00793457	0.000457764	
6.50238	0.00762939	0.000305176	
6.50208	0.00488281	0.000152588	
6.50177	0.00335693	0.000610352	
6.50208	0.00335693	0.000305176	
6.50146	0.00396729	0	
6.50238	0.00366211	0.000152588	
6.50208	0.00305176	0.000305176	
6.50208	0.000610352	0.000457764	
6.50177	-0.0012207	0.000457764	
6.50208	-0.0012207	0.000305176	
6.49933	-0.0012207	0.000457764	
6.4975	-0.00152588	0	
6.49719	-0.0012207	0.00106812	
6.49658	-0.0012207	0.000762939	
6.49658	-0.00427246	0.000305176	
6.49689	-0.00579834	0.000457764	
6.49719	-0.00640869	0.000305176	
6.4975	-0.00579834	0.000305176	
6.49719	-0.00610352	0.000305176	
6.4978	-0.00610352	0.000610352	
6.49719	-0.00976563	0.000457764	
6.49506	-0.010376	0	
6.49261	-0.0115967	0.000457764	
6.49231	-0.010376	0	
6.49231	-0.0125122	0.000152588	
6.49231	-0.0112915	0.000457764	
6.492	-0.0106812	0.000457764	
6.4917	-0.0143433	0.000457764	
6.49139	-0.0164795	0.000915527	
6.49261	-0.0158691	0.000762939	
6.49231	-0.0158691	0.000152588	
6.49231	-0.0164795	-0.000152588	
6.48987	-0.0158691	0.000305176	
6.48743	-0.0161743	0.000152588	
6.48743	-0.0161743	0.000762939	
6.48743	-0.0195313	0.000152588	
6.48773	-0.020752	0.000610352	
6.48682	-0.0219727	0.000305176	
6.48773	-0.0210571	0.000457764	
6.48712	-0.0210571	0.000915527	
6.48743	-0.0213623	0.000305176	
6.48682	-0.0213623	0	
6.48743	-0.0210571	0.000762939	
6.4859	-0.0244141	0.000457764	
6.48224	-0.0256348	0.000305176	
6.48193	-0.0265503	0	
6.48224	-0.0256348	0.000305176	
6.48285	-0.0265503	0.000152588	
6.48254	-0.0265503	0.000457764	
6.48254	-0.0262451	0.000152588	
6.48224	-0.0262451	0.000305176	
6.48285	-0.0265503	0	
6.48254	-0.0299072	0.000762939	
6.48254	-0.0305176	0.000457764	
6.48041	-0.0311279	0.000152588	
6.47766	-0.0308228	0.000305176	
6.47705	-0.0305176	0.000305176	
6.47736	-0.0311279	0.000152588	
6.47797	-0.0308228	0.000457764	
6.47766	-0.0314331	0.000457764	
6.47766	-0.0308228	0.000152588	
6.47766	-0.0302124	0.000152588	
6.47766	-0.0335693	0.000152588	
6.47797	-0.0350952	0.000305176	
6.47705	-0.0350952	0.000305176	
6.47552	-0.0350952	0.000305176	
6.47339	-0.0350952	0.000610352	
6.47278	-0.0354004	0.000152588	
6.47308	-0.0357056	0.000457764	
6.47217	-0.0350952	0.000610352	
6.47247	-0.0354004	0.000305176	
6.47278	-0.0360107	-0.000152588	
6.47278	-0.0354004	0.000152588	
6.47217	-0.0357056	0.000152588	
6.47247	-0.0387573	0.000152588	
6.47278	-0.0405884	0.000152588	
6.47003	-0.0405884	0.000610352	
6.4682	-0.0411987	0.000457764	
6.4679	-0.0411987	0.000457764	
6.46851	-0.0405884	0.000457764	
6.46759	-0.039978	0.000457764	
6.46729	-0.0402832	0	
6.46759	-0.0411987	0.00106812	
6.46759	-0.0408936	0.000762939	
6.46698	-0.0405884	0.000305176	
6.4679	-0.0408936	0	
6.4679	-0.0411987	0.000457764	
6.4679	-0.0408936	0.000305176	
6.46576	-0.0411987	0.000152588	
6.46362	-0.0439453	0.000762939	
6.4624	-0.045166	0.000610352	
6.46271	-0.0460815	0	
6.46271	-0.0460815	0.0012207	
6.46179	-0.0463867	0.000762939	
6.46271	-0.0457764	0	
6.4621	-0.0454712	0.000457764	
6.4624	-0.0457764	0.000610352	
6.46271	-0.0454712	0	
6.4624	-0.0457764	0.000305176	
6.46118	-0.045166	0.000305176	
6.45874	-0.0460815	0.000457764	
6.45782	-0.0460815	0.000305176	
6.45721	-0.0445557	0.000762939	
6.45813	-0.045166	0.000152588	
6.45752	-0.0448608	0.000457764	
6.45691	-0.0448608	0.000610352	
6.45782	-0.0448608	0.000457764	
6.45874	-0.045166	0.000457764	
6.45782	-0.0448608	0.000457764	
6.45782	-0.045166	0.000457764	
6.45569	-0.0463867	0.000305176	
6.45294	-0.0488281	0	
6.45294	-0.050354	0.000305176	
6.45264	-0.0506592	0.000457764	
6.45233	-0.0509644	0	
6.45294	-0.0506592	0.000305176	
6.45294	-0.0509644	0.000457764	
6.45233	-0.050354	0.000305176	
6.45264	-0.050354	0.000610352	
6.45233	-0.0506592	0.000762939	
6.45325	-0.0506592	0.000762939	
6.45111	-0.0509644	0.000152588	
6.44867	-0.0497437	0.000762939	
6.44745	-0.0506592	0.000610352	
6.44745	-0.0500488	0.000152588	
6.44806	-0.0506592	0.000152588	
6.44775	-0.0506592	0	
6.44806	-0.0509644	0.000305176	
6.44775	-0.0509644	0.000305176	
6.44806	-0.0506592	0.000152588	
6.44775	-0.0509644	0.000152588	
6.44745	-0.0506592	0	
6.4447	-0.0497437	0.00106812	
6.44379	-0.050354	0.000610352	
6.44257	-0.050354	0.000152588	
6.44318	-0.0509644	0.000305176	
6.44287	-0.0509644	0.000457764	
6.44379	-0.0509644	0.000305176	
6.44318	-0.0509644	0.000610352	
6.44257	-0.0509644	0.000457764	
6.44226	-0.050354	0.000152588	
6.44318	-0.0509644	0	
6.44287	-0.0500488	0.000915527	
6.44226	-0.050354	0.000305176	
6.44043	-0.0509644	0.000152588	
6.43829	-0.050354	0.000610352	
6.4386	-0.0509644	0.000457764	
6.43768	-0.0506592	0.000152588	
6.4386	-0.050354	0.000457764	
6.43799	-0.0500488	0.000305176	
6.43738	-0.0509644	0.000457764	
6.43799	-0.0512695	-0.000152588	
6.43829	-0.050354	0.000457764	
6.43829	-0.0509644	0.000305176	
6.43799	-0.050354	0.000152588	
6.43585	-0.050354	0.000457764	
6.43402	-0.050354	0.000152588	
6.43311	-0.0506592	0.000610352	
6.4328	-0.0506592	0.000762939	
6.43341	-0.0506592	0.000762939	
6.43341	-0.0497437	0.000457764	
6.43311	-0.050354	0	
6.43219	-0.0509644	0.000762939	
6.43311	-0.050354	0.000305176	
6.43311	-0.0500488	0.000305176	
6.43341	-0.0506592	0.000305176	
6.43158	-0.0512695	0.000457764	
6.42822	-0.0497437	0.000457764	
6.42853	-0.0506592	0.000152588	
6.42822	-0.050354	0.000305176	
6.42822	-0.050354	0.000457764	
6.42883	-0.0509644	0	
6.42792	-0.0506592	0.0012207	
6.42822	-0.0509644	0.000305176	
6.42792	-0.0509644	0	
6.42822	-0.0506592	0.000457764	
6.42822	-0.0509644	0.000457764	
6.42822	-0.0506592	0.000457764	
6.42639	-0.050354	0.000152588	
6.42365	-0.0506592	0	
6.42273	-0.0506592	0.000305176	
6.42273	-0.0500488	-0.000305176	
6.42365	-0.0509644	0.000457764	
6.42303	-0.0512695	0.000305176	
6.42303	-0.0506592	0	
6.42273	-0.0506592	0.000762939	
6.42273	-0.0506592	0.000915527	
6.42273	-0.050354	0.000457764	
6.42303	-0.0473022	0.000610352	
6.4212	-0.0460815	0.000457764	
6.41937	-0.045166	0.000610352	
6.41815	-0.0457764	0.000305176	
6.41846	-0.0454712	0.000305176	
6.41815	-0.0460815	0.000305176	
6.41815	-0.0448608	0.000152588	
6.41876	-0.045166	0.000152588	
6.41815	-0.045166	0.000305176	
6.41815	-0.045166	0.000610352	
6.41815	-0.0460815	0.000762939	
6.41785	-0.0457764	0.000610352	
6.41785	-0.045166	0.000305176	
6.41632	-0.0457764	0	
6.41388	-0.0457764	0.000762939	
6.41266	-0.0457764	0.000457764	
6.41327	-0.0463867	-0.000152588	
6.41357	-0.0460815	0.000152588	
6.41357	-0.045166	0.000152588	
6.41327	-0.0460815	0.000457764	
6.41327	-0.0460815	0.000457764	
6.41327	-0.0454712	0.000152588	
6.41357	-0.045166	0	
6.41327	-0.0460815	0.000457764	
6.41144	-0.0460815	0.000915527	
6.4093	-0.0457764	0.000305176	
6.40747	-0.0457764	0.000305176	
6.40778	-0.0457764	0.000305176	
6.40869	-0.0463867	0.000610352	
6.40869	-0.0454712	0.000457764	
6.40778	-0.0454712	0.000305176	
6.40808	-0.0457764	0.000152588	
6.409	-0.0454712	0.000305176	
6.40839	-0.0454712	-0.000152588	
6.40869	-0.0448608	0.000762939	
6.40839	-0.0460815	0.000457764	
6.40564	-0.045166	-0.000152588	
6.40381	-0.0463867	0.000915527	
6.4035	-0.0454712	0.000457764	
6.40259	-0.0457764	0.000610352	
6.4032	-0.0421143	0.000305176	
6.40381	-0.0415039	0.000305176	
6.40381	-0.0402832	0.000305176	
6.4035	-0.0405884	-0.000152588	
6.4035	-0.0408936	0.000457764	
6.4035	-0.0408936	0.000457764	
6.40381	-0.0408936	0.000305176	
6.40411	-0.0411987	0.000762939	
6.40137	-0.0402832	0.000457764	
6.39923	-0.0402832	0.000457764	
6.39862	-0.0408936	0.000610352	
6.39862	-0.0396729	0.000762939	
6.39862	-0.0405884	0.000457764	
6.39801	-0.0405884	0	
6.39862	-0.0408936	0.0012207	
6.39832	-0.0402832	0.000610352	
6.39893	-0.0408936	0.000152588	
6.39893	-0.0408936	0.000457764	
6.39832	-0.0408936	0.000152588	
6.39618	-0.0408936	0	
6.39435	-0.0408936	0.000305176	
6.39404	-0.0402832	0.000305176	
6.39404	-0.0405884	0.000152588	
6.39343	-0.0402832	-0.000152588	
6.39343	-0.0405884	0.000915527	
6.39374	-0.0405884	0.000305176	
6.39404	-0.0402832	0.000457764	
6.39343	-0.0402832	0.000457764	
6.39374	-0.0408936	0.000305176	
6.39374	-0.0408936	0.000610352	
6.39343	-0.0408936	0.000305176	
6.39099	-0.0402832	0	
6.38916	-0.0405884	0.000305176	
6.38855	-0.0405884	-0.000152588	
6.38855	-0.0402832	0.000457764	
6.38916	-0.0408936	0.000457764	
6.38855	-0.0402832	0	
6.38947	-0.0375366	0.000457764	
6.38855	-0.0360107	0.000152588	
6.38855	-0.0354004	0.000457764	
6.38916	-0.0357056	0.000305176	
6.38855	-0.0363159	0.000305176	
6.38702	-0.0357056	0.000305176	
6.38519	-0.0354004	0	
6.38428	-0.0363159	0.000610352	
6.38336	-0.0360107	0.000457764	
6.38336	-0.0354004	0.000610352	
6.38336	-0.0360107	0.000305176	
6.38397	-0.0363159	0.000457764	
6.38367	-0.0357056	0.000305176	
6.38428	-0.0354004	0.000305176	
6.38397	-0.0357056	0.000762939	
6.38428	-0.0360107	0.000457764	
6.38397	-0.0360107	0	
6.38123	-0.0354004	0.000915527	
6.3797	-0.0354004	0	
6.37878	-0.0357056	0.000305176	
6.37848	-0.0360107	0.000152588	
6.37848	-0.0357056	0.000152588	
6.37878	-0.0357056	0.000457764	
6.37848	-0.0360107	0.000457764	
6.37848	-0.0354004	0.000457764	
6.37848	-0.0354004	0.000152588	
6.37939	-0.0350952	0.000152588	
6.37909	-0.0354004	0.000610352	
6.37573	-0.0354004	0.000915527	
6.37451	-0.0354004	0.000305176	
6.37329	-0.0354004	0.000457764	
6.37421	-0.0357056	0.000305176	
6.37421	-0.0360107	0.000457764	
6.3739	-0.0357056	0.000152588	
6.37451	-0.0357056	0.000305176	
6.3736	-0.0357056	0.000457764	
6.3739	-0.0363159	-0.000152588	
6.37451	-0.0360107	0.000457764	
6.3739	-0.0360107	0.000305176	
6.3736	-0.0360107	0	
6.37177	-0.0360107	0.000762939	
6.36963	-0.0360107	0.000610352	
6.36871	-0.0357056	0.000762939	
6.36841	-0.0360107	0.000610352	
6.36871	-0.0357056	0.000457764	
6.36902	-0.0357056	0.000305176	
6.36932	-0.0360107	0	
6.36902	-0.0354004	0.000457764	
6.36871	-0.0354004	0.000305176	
6.36871	-0.0357056	0.000457764	
6.36841	-0.0354004	0.000457764	
6.36902	-0.0363159	0.000457764	
6.36688	-0.0363159	0.000457764	
6.36444	-0.0357056	0.000762939	
6.36353	-0.0357056	0.000457764	
6.36383	-0.0360107	0.000610352	
6.36383	-0.0360107	0.000152588	
6.36383	-0.0354004	0.000610352	
6.36322	-0.0357056	0.000305176	
6.36383	-0.0360107	0	
6.36322	-0.0357056	0.000152588	
6.36383	-0.0360107	0.000152588	
6.36414	-0.0354004	0.000305176	
6.36108	-0.0360107	0.000152588	
6.35925	-0.0360107	0.000610352	
6.35925	-0.0366211	0.000457764	
6.35925	-0.0350952	0.000152588	
6.35895	-0.0326538	0.000915527	
6.35925	-0.0311279	0.000457764	
6.35925	-0.0308228	0.000305176	
6.35925	-0.0308228	0.000610352	
6.35925	-0.0308228	0.000457764	
6.35864	-0.0314331	0.000457764	
6.35895	-0.0314331	0.000305176	
6.35925	-0.0311279	0.000457764	
6.35681	-0.0314331	0.000305176	
6.35437	-0.0308228	0	
6.35345	-0.0314331	0.000762939	
6.35406	-0.0308228	0.000305176	
6.35406	-0.0308228	0.000457764	
6.35376	-0.0308228	0.000457764	
6.35406	-0.0314331	0.000762939	
6.35376	-0.0341797	0.000610352	
6.35406	-0.0354004	0.000457764	
6.35437	-0.0360107	0.000457764	
6.35437	-0.0360107	0.000610352	
6.35406	-0.0357056	0	
6.35132	-0.0350952	0.000305176	
6.34949	-0.0357056	0.000152588	
6.34888	-0.0360107	0.000152588	
6.34888	-0.0350952	0.000457764	
6.34949	-0.0360107	0.000305176	
6.34949	-0.0357056	0.000457764	
6.34979	-0.0354004	0.000610352	
6.34918	-0.0354004	0.000457764	
6.34857	-0.0354004	0.000457764	
6.34918	-0.0357056	0	
6.34857	-0.0354004	0.000762939	
6.34888	-0.0350952	0.000305176	
6.34644	-0.0357056	0.000152588	
6.34491	-0.0363159	0.000305176	
6.3446	-0.0357056	0	
6.3446	-0.0363159	0	
6.3446	-0.0360107	0.000152588	
6.34369	-0.0354004	0.000152588	
6.3446	-0.0350952	0.000457764	
6.3443	-0.0350952	-0.000152588	
6.34399	-0.0360107	0.00106812	
6.34491	-0.03479	0.000762939	
6.34369	-0.0360107	0.000305176	
6.34399	-0.0357056	0.000305176	
6.34155	-0.0357056	0.000610352	
6.34033	-0.0357056	0.000152588	
6.33911	-0.0357056	0	
6.33911	-0.0357056	0.000305176	
6.33911	-0.0357056	0.000305176	
6.33942	-0.0354004	-0.000152588	
6.33881	-0.0354004	0.000457764	
6.33972	-0.0357056	0.000305176	
6.3385	-0.0360107	0.000457764	
6.33942	-0.0357056	0.000610352	
6.33942	-0.0360107	0.000610352	
6.33972	-0.0360107	0.000457764	
6.33789	-0.0357056	0.000457764	
6.33545	-0.0354004	0.000762939	
6.33423	-0.0357056	0.000305176	
6.33423	-0.0360107	0	
6.33453	-0.0354004	0.000610352	
6.33392	-0.0357056	0.000152588	
6.33392	-0.0354004	0.000305176	
6.33423	-0.0360107	0.000152588	
6.33484	-0.0357056	0.000457764	
6.33423	-0.0354004	0.000610352	
6.33453	-0.0354004	0.000915527	
6.33453	-0.0357056	0.000457764	
6.33362	-0.0357056	0.000762939	
6.33209	-0.0357056	0.000152588	
6.32996	-0.0363159	0.000762939	
6.32965	-0.0360107	0.000305176	
6.32904	-0.0357056	0.000305176	
6.32965	-0.0354004	0.000152588	
6.32935	-0.0363159	0.000457764	
6.32965	-0.0360107	0.000457764	
6.32935	-0.0354004	0.000305176	
6.32935	-0.0350952	0.000305176	
6.32996	-0.0354004	0.000457764	
6.32965	-0.0354004	0	
6.32935	-0.0363159	0.0012207	
6.3266	-0.0357056	0.000305176	
6.32507	-0.0354004	0	
6.32446	-0.0357056	0.000305176	
6.32477	-0.0387573	0.000305176	
6.32507	-0.0405884	0.000305176	
6.32477	-0.0411987	0	
6.32507	-0.0405884	0.000152588	
6.32446	-0.0411987	0.000152588	
6.32446	-0.0408936	-0.000305176	
6.32507	-0.0408936	0.000610352	
6.32477	-0.0402832	0.000152588	
6.32477	-0.0402832	0.000152588	
6.32416	-0.0408936	0.000610352	
6.32172	-0.0405884	0.000305176	
6.3205	-0.0408936	0.000610352	
6.3205	-0.0408936	0.000305176	
6.31927	-0.0408936	0.000152588	
6.31989	-0.0405884	0.000610352	
6.3205	-0.0408936	0	
6.31958	-0.0405884	0.000152588	
6.31989	-0.0405884	0.000152588	
6.31927	-0.0408936	0.000305176	
6.31927	-0.0411987	0.000152588	
6.31927	-0.0405884	0.000152588	
6.31958	-0.0405884	0.000457764	
6.31958	-0.0405884	0.000457764	
6.31775	-0.0405884	0.000305176	
6.31531	-0.0405884	0.000610352	
6.3147	-0.0408936	0	
6.3147	-0.0393677	0.000762939	
6.315	-0.0408936	0.000762939	
6.3147	-0.0402832	0.000152588	
6.315	-0.0405884	0	
6.31531	-0.0405884	0.000152588	
6.3147	-0.0408936	0.000152588	
6.315	-0.0411987	0.000305176	
6.31531	-0.0405884	0	
6.3147	-0.0405884	0.000457764	
6.31195	-0.0442505	0.000152588	
6.31042	-0.045166	0.000915527	
6.31012	-0.045166	0.000915527	
6.30951	-0.0454712	0	
6.31042	-0.045166	0.000305176	
6.30981	-0.045166	0.000305176	
6.31012	-0.045166	0.000457764	
6.31042	-0.0454712	0.000152588	
6.31042	-0.0463867	0.000305176	
6.31042	-0.0457764	0.000305176	
6.31012	-0.0457764	-0.000152588	
6.31012	-0.0448608	0.000457764	
6.31012	-0.0460815	0.000305176	
6.30737	-0.0457764	0.000305176	
6.30554	-0.045166	0.000457764	
6.30493	-0.0454712	0.000457764	
6.30463	-0.045166	0.000457764	
6.30524	-0.045166	0.000457764	
6.30432	-0.0454712	0.000610352	
6.30432	-0.0457764	0.000457764	
6.30493	-0.0457764	0	
6.30554	-0.0448608	0.000305176	
6.30524	-0.0463867	0.000305176	
6.30585	-0.0457764	0.000305176	
6.30554	-0.0454712	0.000305176	
6.30554	-0.0454712	0.000305176	
6.3031	-0.0454712	0.000915527	
6.30066	-0.0454712	0.000915527	
6.30066	-0.0457764	0.000762939	
6.30005	-0.0457764	0.000762939	
6.30035	-0.0482178	0.000152588	
6.30035	-0.050354	0.000915527	
6.30005	-0.050354	0.000457764	
6.30035	-0.0509644	0.000152588	
6.30005	-0.0506592	0	
6.30066	-0.0506592	0.000152588	
6.30005	-0.0506592	0.000305176	
6.30035	-0.0506592	0.000457764	
6.30035	-0.0506592	0.000152588	
6.30066	-0.0497437	0.000457764	
6.2973	-0.0506592	0	
6.29578	-0.0500488	0.000915527	
6.29517	-0.0500488	0.000610352	
6.29486	-0.050354	0.000152588	
6.29517	-0.050354	0.000305176	
6.29547	-0.0506592	0.000305176	
6.29547	-0.0509644	0.000457764	
6.29578	-0.050354	0.000305176	
6.29517	-0.0509644	0.000305176	
6.29517	-0.050354	0.000152588	
6.29456	-0.0506592	0	
6.29486	-0.050354	0.000457764	
6.29547	-0.0509644	0.000457764	
6.29242	-0.0506592	0.000152588	
6.29089	-0.0506592	0.000915527	
6.29028	-0.0537109	0.000305176	
6.29059	-0.0549316	0.000610352	
6.28998	-0.0552368	0.000305176	
6.29028	-0.0558472	0.000152588	
6.29089	-0.055542	0.000457764	
6.29089	-0.055542	0	
6.29089	-0.055542	0.000457764	
6.29028	-0.055542	0.000152588	
6.28937	-0.0558472	0.000457764	
6.29028	-0.0549316	0.000610352	
6.28998	-0.055542	0.000152588	
6.28754	-0.0561523	0.000457764	
6.28601	-0.0558472	0.000610352	
6.28571	-0.055542	0.000610352	
6.2854	-0.0558472	0.000305176	
6.28601	-0.0549316	0.000152588	
6.2854	-0.0552368	0.000457764	
6.28479	-0.0561523	0.000305176	
6.28479	-0.0558472	0.000457764	
6.2854	-0.0552368	0.000305176	
6.2851	-0.055542	0.000457764	
6.28601	-0.0546265	0.000305176	
6.2851	-0.0552368	0.000305176	
6.2854	-0.055542	0.000457764	
6.28479	-0.0585938	0.000457764	
6.28296	-0.0604248	0	
6.28052	-0.0601196	0.000610352	
6.28052	-0.0604248	0.000457764	
6.28021	-0.0601196	0.000152588	
6.28021	-0.06073	0.000915527	
6.28021	-0.06073	0.000305176	
6.28021	-0.0604248	0.000610352	
6.28082	-0.0598145	0.000152588	
6.28143	-0.06073	0	
6.28052	-0.0601196	0.000457764	
6.28021	-0.0601196	-0.000152588	
6.28082	-0.0601196	0.000457764	
6.28021	-0.0601196	0.000457764	
6.27808	-0.06073	0.000152588	
6.27594	-0.0604248	0.000457764	
6.27594	-0.06073	0.000762939	
6.27563	-0.0604248	0.000305176	
6.27563	-0.0604248	0.000305176	
6.27594	-0.06073	0.000457764	
6.27594	-0.06073	0.000305176	
6.27472	-0.0601196	0	
6.27533	-0.0601196	0.000305176	
6.27533	-0.06073	0.000152588	
6.27533	-0.0610352	0.000305176	
6.27625	-0.0637817	0.000457764	
6.27502	-0.0646973	0.000305176	
6.27563	-0.0646973	0.000610352	
6.27319	-0.0650024	0.000457764	
6.27167	-0.0653076	0.000457764	
6.27075	-0.0646973	0.000305176	
6.26984	-0.0653076	0	
6.27014	-0.0650024	0.000762939	
6.27045	-0.0646973	0.000610352	
6.27045	-0.065918	0.000305176	
6.27045	-0.0653076	0	
6.26984	-0.0653076	0.000152588	
6.27075	-0.0653076	0.000152588	
6.27075	-0.0653076	0.000305176	
6.27045	-0.0653076	0.000152588	
6.27075	-0.0656128	0.000457764	
6.26831	-0.0653076	0.000152588	
6.26617	-0.0650024	0.00106812	
6.26587	-0.0646973	0.000610352	
6.26526	-0.0653076	0.000610352	
6.26556	-0.065918	0.000457764	
6.26495	-0.0653076	0.000457764	
6.26617	-0.0656128	0.000305176	
6.26556	-0.065918	0	
6.26526	-0.0653076	0.000152588	
6.26617	-0.0662231	0.000152588	
6.26556	-0.0686646	0	
6.26587	-0.0701904	0.000457764	
6.26556	-0.0701904	0	
6.26587	-0.0701904	0.000305176	
6.26373	-0.0698853	0.000610352	
6.26221	-0.0701904	0.000457764	
6.26129	-0.0704956	0.000610352	
6.26007	-0.0698853	0.000762939	
6.26038	-0.0701904	0.000762939	
6.26038	-0.0698853	0.000762939	
6.26068	-0.0708008	-0.000152588	
6.26038	-0.0695801	0.000457764	
6.26068	-0.0704956	0.000457764	
6.26068	-0.0704956	0.000305176	
6.26038	-0.0701904	0.000457764	
6.26068	-0.0695801	0.000152588	
6.26007	-0.0701904	0.000457764	
6.26129	-0.0701904	0.000762939	
6.25793	-0.0698853	0.000457764	
6.2558	-0.0704956	0.000457764	
6.2558	-0.0708008	0.000152588	
6.2558	-0.0704956	0.00106812	
6.2558	-0.0701904	0.000762939	
6.25519	-0.0704956	0.000152588	
6.25519	-0.0708008	0.000152588	
6.25519	-0.0695801	0.000457764	
6.2561	-0.0708008	0.000152588	
6.25549	-0.0704956	0.000305176	
6.2558	-0.0698853	0.000152588	
6.25519	-0.0704956	0.000305176	
6.2558	-0.0738525	0	
6.25244	-0.0744629	0.00106812	
6.25092	-0.0744629	0.000762939	
6.25	-0.0750732	0	
6.25061	-0.0753784	0.000305176	
6.25122	-0.0747681	0.000305176	
6.25092	-0.0744629	0.000152588	
6.25092	-0.0747681	0.000152588	
6.25031	-0.0753784	0.000305176	
6.25031	-0.0750732	0.000305176	
6.25092	-0.0750732	0.000457764	
6.25031	-0.0747681	0.000610352	
6.25092	-0.0747681	0.000610352	
6.25092	-0.0750732	0.000457764	
6.25092	-0.0747681	0.000457764	
6.24786	-0.0753784	0.000610352	
6.24664	-0.0747681	0	
6.24573	-0.0756836	0.000305176	
6.24634	-0.0753784	0.000152588	
6.24573	-0.0753784	0.000457764	
6.24603	-0.0744629	0	
6.24542	-0.0750732	0.000457764	
6.24603	-0.0750732	0.000152588	
6.24542	-0.0750732	0.000305176	
6.24542	-0.0750732	0	
6.24603	-0.0750732	0.000457764	
6.24634	-0.0744629	0.000305176	
6.24542	-0.0750732	0.000305176	
6.24603	-0.0759888	0.000457764	
6.2439	-0.0747681	0.000305176	
6.24176	-0.0753784	-0.000152588	
6.24146	-0.0750732	0.000457764	
6.24115	-0.0750732	0.000610352	
6.24115	-0.0750732	0.000152588	
6.24146	-0.0744629	0.000152588	
6.24084	-0.0750732	0.000305176	
6.24084	-0.0750732	0.000457764	
6.24115	-0.0747681	0	
6.24054	-0.0753784	0.000305176	
6.24084	-0.0741577	0.000305176	
6.24176	-0.0747681	0	
6.24146	-0.0750732	0.000915527	
6.2384	-0.0778198	0.000610352	
6.23596	-0.0796509	0.000152588	
6.23627	-0.0799561	0.000152588	
6.23596	-0.0799561	0.000152588	
6.23627	-0.0793457	0.000305176	
6.23627	-0.0796509	0.000152588	
6.23535	-0.0799561	0.000152588	
6.23657	-0.0796509	0	
6.23596	-0.0808716	-0.000152588	
6.23566	-0.0799561	0.000457764	
6.23535	-0.0799561	0.000457764	
6.23596	-0.0793457	0.000305176	
6.23566	-0.0802612	0.000457764	
6.23566	-0.0796509	0.000457764	
6.23322	-0.0796509	0.000610352	
6.23169	-0.0802612	0.000457764	
6.23077	-0.0796509	0.000305176	
6.23108	-0.0796509	0.000457764	
6.23108	-0.0793457	-0.000152588	
6.23077	-0.0793457	0.000457764	
6.23047	-0.0799561	0.000305176	
6.23047	-0.0799561	0.000457764	
6.23108	-0.0799561	0	
6.23108	-0.0796509	0.000152588	
6.23199	-0.0799561	0.000457764	
6.23047	-0.0799561	0.000610352	
6.23138	-0.0799561	0.000762939	
6.23138	-0.0799561	0.000457764	
6.22925	-0.0799561	0.000152588	
6.22711	-0.0799561	0.000457764	
6.22681	-0.0796509	0.000305176	
6.22589	-0.0799561	0.000152588	
6.2262	-0.0799561	0.000305176	
6.2262	-0.0796509	0.000305176	
6.2265	-0.0802612	0	
6.2265	-0.0799561	0.000152588	
6.22589	-0.0793457	0.000305176	
6.2262	-0.0799561	0.000305176	
6.2265	-0.0799561	-0.000152588	
6.22589	-0.0799561	0.000762939	
6.22681	-0.0793457	0.000610352	
6.22589	-0.0793457	0	
6.22375	-0.0796509	0.000152588	
6.22162	-0.0799561	0.000457764	
6.22101	-0.0796509	0.000305176	
6.22131	-0.0799561	0.000152588	
6.22101	-0.0799561	-0.000152588	
6.22101	-0.0796509	0.000305176	
6.22101	-0.0799561	0	
6.22131	-0.0796509	0.000305176	
6.2207	-0.0799561	0.000305176	
6.22101	-0.0805664	0.000457764	
6.22101	-0.0796509	0.000610352	
6.22101	-0.0799561	0.000305176	
6.22131	-0.0802612	0.000610352	
6.22131	-0.0799561	0.000457764	
6.21857	-0.0802612	-0.000152588	
6.21674	-0.0796509	0.000457764	
6.21613	-0.0805664	0	
6.21552	-0.0796509	0.000610352	
6.21643	-0.0802612	0.000610352	
6.21613	-0.0796509	0.000152588	
6.21613	-0.0796509	0.000457764	
6.21674	-0.0793457	0.000762939	
6.21613	-0.0793457	0.000457764	
6.21643	-0.0793457	0.000610352	
6.21674	-0.0799561	0.000762939	
6.21613	-0.0796509	0.000305176	
6.21643	-0.0799561	0	
6.21643	-0.0796509	0.000762939	
6.21429	-0.0799561	0.000457764	
6.21094	-0.0790405	0.000152588	
6.21094	-0.0796509	0.000305176	
6.21155	-0.0796509	0.000152588	
6.21124	-0.0799561	0.000457764	
6.21185	-0.0802612	0.000457764	
6.21124	-0.0793457	0.000305176	
6.21155	-0.0796509	0.000457764	
6.21094	-0.0802612	-0.000152588	
6.21094	-0.0793457	0.000762939	
6.21155	-0.0796509	0.000457764	
6.21124	-0.0796509	0.000152588	
6.21155	-0.0802612	0.000305176	
6.21155	-0.0802612	0.000610352	
6.20941	-0.0793457	0.000457764	
6.20728	-0.0796509	0.000152588	
6.20605	-0.0799561	0.000152588	
6.20605	-0.0796509	0.000305176	
6.20697	-0.0799561	-0.000152588	
6.20636	-0.0796509	0.000762939	
6.20667	-0.0796509	0.000152588	
6.20636	-0.0799561	0.000305176	
6.20605	-0.0802612	0.000762939	
6.20605	-0.0793457	0.000305176	
6.20667	-0.0796509	0.000610352	
6.20667	-0.0796509	0.000915527	
6.20605	-0.0796509	0.000457764	
6.20667	-0.0796509	0.000152588	
6.20392	-0.0790405	-0.000152588	
6.20178	-0.0796509	0.000305176	
6.20117	-0.0802612	0.000457764	
6.20117	-0.0799561	0.000152588	
6.20148	-0.0796509	0.000610352	
6.20209	-0.0796509	0.000152588	
6.20117	-0.0796509	0.000457764	
6.20239	-0.0796509	0.000457764	
6.20026	-0.0802612	0.000610352	
6.20178	-0.0790405	0.000610352	
6.20148	-0.0802612	0.000152588	
6.20117	-0.0796509	0.000915527	
6.20087	-0.0793457	0.000457764	
6.20117	-0.0799561	0.000152588	
6.19934	-0.0796509	0.000152588	
6.1972	-0.0799561	0.000305176	
6.19659	-0.0799561	0.000152588	
6.19659	-0.0793457	0.000305176	
6.19629	-0.0799561	0.000305176	
6.19659	-0.0796509	0.000457764	
6.1969	-0.0799561	0	
6.19629	-0.0790405	0.000762939	
6.1969	-0.0793457	0.000762939	
6.19629	-0.0802612	0.000305176	
6.1969	-0.0796509	0.000305176	
6.19598	-0.0796509	0.000457764	
6.19659	-0.0796509	0.000457764	
6.19476	-0.0796509	0.000305176	
6.19171	-0.0796509	0.000152588	
6.19171	-0.0799561	0	
6.19171	-0.0802612	-0.000152588	
6.19141	-0.0799561	0.000610352	
6.19141	-0.0802612	0.000152588	
6.19171	-0.0796509	0.000305176	
6.19141	-0.0802612	0.000610352	
6.1911	-0.0796509	0.000457764	
6.19171	-0.0799561	0.000457764	
6.19171	-0.0793457	0.000457764	
6.19171	-0.0793457	0.000152588	
6.19202	-0.0799561	0.000457764	
6.19171	-0.0802612	0.000152588	
6.18805	-0.0796509	0.000610352	
6.18713	-0.0799561	0.000305176	
6.18591	-0.0796509	0.000305176	
6.18652	-0.0802612	0.000305176	
6.18561	-0.0799561	0.000457764	
6.18652	-0.0796509	0.000457764	
6.18591	-0.0799561	0.000305176	
6.18652	-0.0799561	0.000457764	
6.18683	-0.0796509	0.000457764	
6.18622	-0.0796509	0.000152588	
6.18652	-0.0796509	0.000305176	
6.18652	-0.0796509	0.000915527	
6.18652	-0.0805664	0.000305176	
6.18408	-0.0802612	0.000305176	
6.18225	-0.0799561	0.000152588	
6.18195	-0.0796509	0.000457764	
6.18134	-0.0799561	0.000305176	
6.18225	-0.0802612	0.000457764	
6.18134	-0.0799561	0.000457764	
6.18103	-0.0799561	-0.000152588	
6.18073	-0.0805664	0.00106812	
6.18103	-0.0799561	0.000457764	
6.18164	-0.0796509	0.000152588	
6.18103	-0.0799561	0.000457764	
6.18164	-0.0793457	0.000152588	
6.1792	-0.0796509	0.000457764	
6.17767	-0.0802612	0.000305176	
6.17615	-0.0802612	0.000152588	
6.17584	-0.0802612	0.000305176	
6.17676	-0.0796509	0	
6.17584	-0.0793457	0.000610352	
6.17676	-0.0796509	0.000457764	
6.17676	-0.0796509	0.000152588	
6.17676	-0.0765991	0.000305176	
6.17737	-0.0753784	0.000457764	
6.17676	-0.0756836	0.000457764	
6.17676	-0.0753784	0.000457764	
6.17615	-0.0750732	0.000152588	
6.17371	-0.0750732	0.000457764	
6.17188	-0.0750732	0.000305176	
6.17249	-0.0750732	0.000305176	
6.17126	-0.0756836	0.000152588	
6.17188	-0.0756836	0.000457764	
6.17249	-0.0756836	0.000457764	
6.17188	-0.0747681	0.000305176	
6.17157	-0.0750732	0.000457764	
6.17218	-0.0753784	0.000457764	
6.17188	-0.0750732	0.000305176	
6.17188	-0.0750732	0.000610352	
6.17157	-0.0750732	0	
6.16974	-0.0750732	0.000915527	
6.1676	-0.0747681	0.000457764	
6.16669	-0.0747681	0.000457764	
6.16669	-0.0753784	0.000305176	
6.16699	-0.0750732	0.000305176	
6.1676	-0.0753784	0.000305176	
6.1673	-0.0753784	0.000305176	
6.16669	-0.0756836	0.000152588	
6.16699	-0.0750732	0.000305176	
6.16638	-0.0753784	0	
6.16699	-0.0750732	0.000457764	
6.16699	-0.0747681	0.000457764	
6.16699	-0.0756836	0.000152588	
6.16425	-0.0717163	0.000457764	
6.16272	-0.0698853	0.000610352	
6.16211	-0.0698853	0.000457764	
6.16211	-0.0701904	0.000152588	
6.16211	-0.0698853	0.000152588	
6.1615	-0.0701904	0	
6.1615	-0.0708008	0.000152588	
6.1618	-0.0701904	0.000762939	
6.1618	-0.0704956	0.000305176	
6.16211	-0.0704956	-0.000152588	
6.16241	-0.0695801	0.000457764	
6.1615	-0.0701904	0.000457764	
6.15936	-0.0695801	0.000305176	
6.15753	-0.0708008	0.000457764	
6.15692	-0.0695801	0.000915527	
6.15723	-0.0701904	0.000305176	
6.15753	-0.0695801	0	
6.15662	-0.0665283	0.000305176	
6.15631	-0.065918	0	
6.15753	-0.0646973	0.000305176	
6.15723	-0.0656128	0.000305176	
6.15692	-0.0653076	0.000152588	
6.15692	-0.0653076	0.000457764	
6.15753	-0.0650024	0.000457764	
6.15479	-0.0656128	0.000610352	
6.15234	-0.0646973	0.000762939	
6.15173	-0.0662231	0.000152588	
6.15173	-0.0653076	0.000762939	
6.15204	-0.0653076	0.000457764	
6.15234	-0.0613403	0.000152588	
6.15265	-0.06073	0.000305176	
6.15143	-0.0598145	0.000152588	
6.15295	-0.0604248	0.000152588	
6.15204	-0.0601196	0.000457764	
6.15234	-0.0598145	0.000305176	
6.1499	-0.0610352	0.000305176	
6.14807	-0.0604248	0	
6.14746	-0.0598145	0.00106812	
6.14685	-0.0570679	0.000915527	
6.14685	-0.0558472	0.000305176	
6.14777	-0.0558472	0.000610352	
6.14716	-0.055542	0.000610352	
6.14746	-0.055542	0.000305176	
6.14746	-0.0558472	0	
6.14655	-0.0552368	0.000305176	
6.14655	-0.0552368	0	
6.14716	-0.0524902	0.000152588	
6.14532	-0.0506592	0.000915527	
6.14319	-0.0506592	0.000305176	
6.14166	-0.050354	0.000305176	
6.14258	-0.0500488	0.000610352	
6.14288	-0.050354	0.000305176	
6.14288	-0.0506592	0.000152588	
6.14197	-0.0473022	0.000610352	
6.14258	-0.045166	0.000457764	
6.14319	-0.0454712	0.000610352	
6.14197	-0.045166	0	
6.14258	-0.0454712	0.000457764	
6.14197	-0.045166	0.000152588	
6.14014	-0.0424194	0.000457764	
6.13831	-0.0405884	0.000457764	
6.1377	-0.0405884	0.000305176	
6.138	-0.0405884	0.000305176	
6.1377	-0.0405884	0.000305176	
6.13708	-0.0408936	0.000762939	
6.138	-0.0369263	0.000457764	
6.1377	-0.0354004	0.000152588	
6.13708	-0.0354004	0.000610352	
6.1377	-0.0360107	0.000152588	
6.13708	-0.0354004	0	
6.13434	-0.0326538	0.000457764	
6.13342	-0.0311279	0.000152588	
6.13281	-0.0308228	-0.000152588	
6.1322	-0.0308228	0.000305176	
6.1322	-0.0305176	0.000305176	
6.13251	-0.027771	0.000305176	
6.13342	-0.0265503	-0.000152588	
6.13281	-0.0259399	0.00106812	
6.13281	-0.0259399	0.000610352	
6.13281	-0.0250244	0.000457764	
6.1322	-0.0228882	0.000457764	
6.12915	-0.0210571	0.000152588	
6.12823	-0.020752	0	
6.12762	-0.0210571	0.000305176	
6.12762	-0.020752	0.000457764	
6.12732	-0.0180054	0.000152588	
6.12732	-0.0164795	0.000305176	
6.12701	-0.0158691	0.000762939	
6.12671	-0.015564	0.000457764	
6.12732	-0.0131226	0.000457764	
6.12793	-0.0109863	0.000305176	
6.12732	-0.0112915	0.000305176	
6.12793	-0.0106812	0.000305176	
6.12579	-0.00762939	0.000457764	
6.12335	-0.00640869	0.000610352	
6.12274	-0.00610352	0.000305176	
6.12305	-0.00579834	0.000305176	
6.12183	-0.00305176	0.000610352	
6.12244	-0.00152588	0.000152588	
6.12274	-0.0012207	0.000152588	
6.12213	-0.00152588	0.000305176	
6.12305	0.00152588	0.000457764	
6.12305	0.00244141	0.000305176	
6.12305	0.00396729	0.000457764	
6.12	0.00335693	0.000305176	
6.11877	0.00701904	0.000610352	
6.11816	0.00762939	0.000152588	
6.11725	0.00854492	0.000457764	
6.11755	0.0115967	0.000152588	
6.11755	0.0128174	0.000152588	
6.11755	0.0128174	0.000457764	
6.11725	0.0131226	0	
6.11755	0.0167847	0.000305176	
6.11664	0.0177002	0.000305176	
6.11786	0.0183105	0.000305176	
6.11542	0.0189209	0.000152588	
6.11328	0.0210571	-0.000152588	
6.11237	0.0228882	0.00106812	
6.11328	0.0231934	0.000610352	
6.11206	0.0268555	0.000305176	
6.11267	0.0274658	0.000305176	
6.11298	0.0274658	0.000152588	
6.11267	0.0311279	0.000305176	
6.11267	0.0320435	0.000305176	
6.11267	0.0332642	0.000152588	
6.11267	0.0323486	0	
6.11023	0.0357056	0.000152588	
6.1084	0.0378418	0.000610352	
6.10748	0.0375366	0.000152588	
6.10748	0.0411987	0.000152588	
6.10748	0.0424194	0.000610352	
6.10809	0.0430298	0.000457764	
6.10718	0.0460815	0.000305176	
6.1084	0.0473022	0.000152588	
6.10779	0.0473022	0.000457764	
6.1087	0.0473022	0.000457764	
6.10748	0.0500488	0	
6.10474	0.0515747	0.000457764	
6.10352	0.0527954	0.000305176	
6.10199	0.055542	0.000152588	
6.10229	0.0576782	0.000152588	
6.1026	0.0579834	0.000152588	
6.10229	0.0601196	0.000457764	
6.1026	0.0622559	0.000457764	
6.1026	0.062561	0.000610352	
6.1026	0.0653076	0.000305176	
6.10229	0.0671387	0.000152588	
6.1026	0.067749	0.00106812	
6.10016	0.0704956	0.000457764	
6.09833	0.0717163	0.000152588	
6.09772	0.0723267	0.000305176	
6.09772	0.0756836	0.000305176	
6.09772	0.0765991	0	
6.09741	0.0772095	0.000305176	
6.09772	0.0769043	0.000305176	
6.09833	0.0805664	0.000152588	
6.09772	0.0811768	0	
6.09802	0.0817871	0.000305176	
6.09558	0.0839233	0.000915527	
6.09375	0.0854492	0.000152588	
6.09314	0.0857544	0.000152588	
6.09314	0.0897217	0.000610352	
6.09314	0.0909424	-0.000152588	
6.09283	0.0918579	0.000305176	
6.09344	0.0942993	0.000152588	
6.09375	0.0958252	0.000152588	
6.09253	0.0961304	0	
6.09253	0.0991821	0.000457764	
6.09375	0.100403	0.000457764	
6.09009	0.100708	0.000305176	
6.08856	0.104065	0.000457764	
6.08826	0.105896	0.000152588	
6.08765	0.106201	0.000457764	
6.08795	0.108948	0.000457764	
6.08765	0.110474	0.000305176	
6.08856	0.110474	0.000305176	
6.08795	0.110779	0.000152588	
6.08826	0.113831	0.000457764	
6.08826	0.115356	0.000152588	
6.08551	0.115967	0.000305176	
6.08398	0.119019	0.000305176	
6.08276	0.119934	0.000152588	
6.08337	0.120544	0.000305176	
6.08337	0.123596	0.000610352	
6.08307	0.125122	0.000305176	
6.08398	0.126038	0.000762939	
6.08337	0.129089	-0.000152588	
6.08307	0.130005	0.000915527	
6.08337	0.130005	0.000152588	
6.08276	0.13092	0.000457764	
6.08093	0.133362	0.000305176	
6.0791	0.134583	0	
6.0791	0.136719	0.000457764	
6.07819	0.13855	0.000610352	
6.07819	0.139771	0.000152588	
6.0788	0.140991	0.000152588	
6.07788	0.143433	-0.000305176	
6.07788	0.145264	0.00106812	
6.07758	0.145569	0.000610352	
6.07819	0.145264	0.000152588	
6.07513	0.148621	0.000457764	
6.07361	0.149231	0.000610352	
6.07269	0.149536	0.000305176	
6.07269	0.153809	0.000457764	
6.07361	0.154724	0.000152588	
6.0733	0.155029	0.000305176	
6.07239	0.154724	-0.000305176	
6.073	0.158081	0.000762939	
6.0733	0.159302	0.000152588	
6.07269	0.159607	0.000305176	
6.07147	0.162659	0.000457764	
6.06842	0.16449	0.000305176	
6.06842	0.16449	0.000457764	
6.06812	0.1651	0.000457764	
6.06812	0.167542	0.000457764	
6.06842	0.168762	0.000305176	
6.06781	0.169678	0	
6.06842	0.169983	0.000457764	
6.06812	0.173035	0	
6.06812	0.174255	0	
6.06689	0.174561	0.000762939	
6.06354	0.174255	0.000152588	
6.06354	0.177307	0.000305176	
6.06262	0.178528	0.000610352	
6.06293	0.178833	0.000152588	
6.06323	0.179443	0.000457764	
6.06323	0.18219	0.000152588	
6.06323	0.183411	0.0012207	
6.06354	0.184326	0.000762939	
6.06323	0.184021	0.000305176	
6.06018	0.187378	0.000305176	
6.05896	0.188293	0	
6.05835	0.188904	0.000152588	
6.05835	0.189209	0.000610352	
6.05835	0.192261	0.000305176	
6.05743	0.193787	0.000457764	
6.05774	0.194397	-0.000152588	
6.05835	0.193481	0.00106812	
6.05835	0.197754	0.000610352	
6.05804	0.198669	0.000305176	
6.05652	0.19928	0.000457764	
6.05438	0.198669	0	
6.05408	0.19928	0.000305176	
6.05377	0.201721	0.000305176	
6.05408	0.203857	0	
6.05316	0.203552	0.000152588	
6.05316	0.203552	0	
6.05316	0.204163	0.000457764	
6.05377	0.206909	0	
6.05347	0.20874	0	
6.05072	0.209351	0.000305176	
6.04889	0.208435	0.000457764	
6.04828	0.209045	0.000457764	
6.04858	0.211487	0.000762939	
6.04858	0.213928	0.000457764	
6.04767	0.213623	0.000762939	
6.04828	0.213623	0	
6.04858	0.213318	0.000610352	
6.04797	0.213623	0	
6.04797	0.216675	0.000305176	
6.04614	0.218506	0.000610352	
6.04401	0.218201	0.000152588	
6.04309	0.218506	0.000610352	
6.0437	0.218506	0.000152588	
6.04401	0.219116	0.000457764	
6.04279	0.222168	0.000610352	
6.04279	0.223389	0.000152588	
6.04401	0.223083	0.000610352	
6.0434	0.223999	0.000610352	
6.04248	0.223694	0.000305176	
6.04126	0.222473	0.000305176	
6.03912	0.223389	0.000457764	
6.03821	0.227051	0	
6.03851	0.227966	0.000457764	
6.03851	0.228271	0.000152588	
6.03882	0.228271	0.000610352	
6.03851	0.228577	0	
6.03882	0.228271	0.0012207	
6.03882	0.228577	0.000457764	
6.03607	0.228271	0.000457764	
6.03424	0.231934	0.000457764	
6.03394	0.232544	0.000305176	
6.03424	0.233154	0.000305176	
6.03302	0.233154	0.000152588	
6.03394	0.232544	0.000152588	
6.03363	0.233459	0.000305176	
6.03333	0.232849	-0.000152588	
6.03394	0.232849	0.000762939	
6.03363	0.233154	0.000305176	
6.03088	0.232849	-0.000152588	
6.02905	0.237122	0.000305176	
6.02875	0.237427	0.000305176	
6.02844	0.238037	0.000457764	
6.02844	0.238037	0.000305176	
6.02875	0.238342	0.000610352	
6.02844	0.238037	0.000305176	
6.02814	0.238037	0.000152588	
6.02875	0.238342	0.000457764	
6.02875	0.238037	0	
6.02631	0.237732	0.000457764	
6.02356	0.238037	0.000152588	
6.02386	0.238342	0.000457764	
6.02356	0.238037	0.000457764	
6.02356	0.238037	0.000457764	
6.02386	0.238037	0.000305176	
6.02386	0.238647	0.000610352	
6.02325	0.241089	0	
6.02325	0.242615	0.000762939	
6.02386	0.24353	0.000610352	
6.02142	0.243225	0.000305176	
6.01929	0.242615	0.000152588	
6.01868	0.24292	0.000152588	
6.01898	0.242615	0.000305176	
6.01898	0.24292	0.000152588	
6.01837	0.24292	0	
6.01868	0.242615	0.000152588	
6.01837	0.242615	0	
6.01868	0.242615	0.000915527	
6.01807	0.243225	0.000457764	
6.01654	0.24292	0.000457764	
6.01471	0.24292	0.000305176	
6.0141	0.24292	0.000152588	
6.0144	0.243225	0.000152588	
6.01379	0.243225	0.000305176	
6.0141	0.242615	0.000152588	
6.01379	0.24353	0.000305176	
6.01379	0.24292	0	
6.0141	0.243225	0.000762939	
6.01379	0.242615	0.000305176	
6.01105	0.24292	0.000152588	
6.00983	0.242615	0.000610352	
6.00891	0.24292	0.000152588	
6.00922	0.243225	0.000457764	
6.00922	0.243225	0.000457764	
6.00922	0.24292	0.000457764	
6.008	0.242615	0.000457764	
6.00861	0.24292	0.000305176	
6.00861	0.243225	0.000457764	
6.00708	0.242615	0.000305176	
6.00433	0.24231	0.000305176	
6.00372	0.242615	0.000457764	
6.00403	0.24231	0.000305176	
6.00342	0.239868	0.000152588	
6.00372	0.238342	0.000762939	
6.00372	0.238342	0.000457764	
6.00403	0.238037	0.000305176	
6.00311	0.238037	-0.000152588	
6.00403	0.238342	0.00106812	
6.00128	0.237732	0.000457764	
5.99915	0.238037	0.000305176	
5.99945	0.238647	0.000305176	
5.99945	0.238037	0.000152588	
5.99976	0.238342	0	
5.99945	0.238342	0.000152588	
5.99945	0.238342	0.000305176	
5.99945	0.238037	0.000305176	
5.99976	0.238037	0	
5.99976	0.238342	0.000762939	
5.9967	0.238037	0.000610352	
5.99365	0.234985	0.000305176	
5.99396	0.233459	0.000152588	
5.99396	0.233765	0.000152588	
5.99426	0.233154	0.000915527	
5.99457	0.233154	0.000305176	
5.99396	0.233459	0.000305176	
5.99396	0.232849	0.000152588	
5.99396	0.233765	-0.000152588	
5.99457	0.233459	0.000610352	
5.99182	0.233459	0.000152588	
5.98999	0.233765	0	
5.98938	0.233154	0.000457764	
5.98938	0.230408	0	
5.98969	0.228271	0.000305176	
5.98907	0.227966	0.000610352	
5.98999	0.228577	0.000762939	
5.98907	0.229492	0.000305176	
5.98938	0.228271	0	
5.98907	0.228271	0.000457764	
5.98724	0.228577	0.000305176	
5.98419	0.228577	0.000457764	
5.98419	0.225525	0.000457764	
5.98389	0.223694	0.000610352	
5.98419	0.223694	0.000305176	
5.98389	0.223083	0.000305176	
5.98389	0.223389	0.000610352	
5.98419	0.223694	0.000610352	
5.9845	0.222778	0.000305176	
5.9845	0.223694	0.000457764	
5.98389	0.223694	0.000610352	
5.98236	0.220642	0.000152588	
5.98083	0.218506	0.000457764	
5.979	0.218506	0.000152588	
5.97961	0.217896	0.000457764	
5.97961	0.218506	0.000152588	
5.97961	0.218506	0.000305176	
5.97992	0.218201	0.000305176	
5.97961	0.214844	0	
5.979	0.213928	0.000915527	
5.97931	0.213318	0.000762939	
5.97656	0.213013	0.000457764	
5.97534	0.213928	0.000305176	
5.97443	0.213013	0.000457764	
5.97473	0.213928	0.000457764	
5.97473	0.210266	0.000152588	
5.97443	0.20874	0	
5.97534	0.20813	0.000152588	
5.97443	0.209351	0.000152588	
5.97443	0.208435	0.000915527	
5.97473	0.20874	0.000152588	
5.97168	0.20813	0.000152588	
5.97015	0.205078	0.000305176	
5.97046	0.204163	0.000457764	
5.96954	0.203857	0.000152588	
5.96985	0.203857	0.000762939	
5.97015	0.203247	0.000457764	
5.97015	0.203857	0.000457764	
5.96985	0.200806	0	
5.96985	0.199585	0.000610352	
5.96954	0.198364	0.000457764	
5.97015	0.198669	0.000152588	
5.96771	0.198669	0.000457764	
5.96527	0.198669	0.000305176	
5.96436	0.195313	0.000457764	
5.96436	0.193787	0	
5.96497	0.194092	0.000915527	
5.96466	0.194092	0.000457764	
5.96497	0.193787	0	
5.96466	0.193481	0.000610352	
5.96466	0.19043	0.000457764	
5.96436	0.188904	0.000152588	
5.96252	0.188904	0.000152588	
5.96039	0.189209	0	
5.96008	0.189209	0.000152588	
5.95978	0.189209	0.000610352	
5.96008	0.185852	0.000152588	
5.95978	0.184326	0	
5.96008	0.183716	-0.000152588	
5.96008	0.184021	0.00106812	
5.95947	0.183411	0.000457764	
5.95978	0.181274	0.000457764	
5.95947	0.178833	0.000305176	
5.95764	0.178528	0.000457764	
5.95551	0.179138	0.000152588	
5.95459	0.179443	0.000610352	
5.95459	0.176086	0.000152588	
5.95428	0.174561	-0.000152588	
5.95459	0.17395	-0.000152588	
5.95459	0.174561	0.0012207	
5.95459	0.17395	0.000152588	
5.95428	0.17395	0.000152588	
5.95428	0.170593	0.000610352	
5.9549	0.169067	0.000762939	
5.95306	0.169067	0.000305176	
5.95093	0.169373	0.000457764	
5.94971	0.169067	0.000152588	
5.95032	0.166016	0.000457764	
5.94971	0.164795	-0.000152588	
5.94971	0.164185	0.0012207	
5.9494	0.16449	0.000152588	
5.9491	0.164185	0.000152588	
5.94971	0.160522	0.000457764	
5.9491	0.159302	-0.000152588	
5.94727	0.159607	0.000305176	
5.94513	0.159607	0.000457764	
5.94513	0.159302	0.000457764	
5.94391	0.15625	0.000457764	
5.94482	0.154724	0.000152588	
5.94482	0.154724	0.00183105	
5.94452	0.154724	0.000457764	
5.94421	0.154724	0.000457764	
5.94452	0.151672	0.000610352	
5.94482	0.149841	0	
5.94513	0.149841	0.000305176	
5.94482	0.150146	0.000152588	
5.94208	0.148926	0.000152588	
5.94055	0.147095	0.000457764	
5.93964	0.145569	0	
5.93994	0.144958	0.00137329	
5.94025	0.144958	0.000457764	
5.93933	0.144348	0.000457764	
5.93994	0.141602	0.000305176	
5.94055	0.140686	0.000610352	
5.93994	0.140076	0.000457764	
5.93964	0.140381	0.000305176	
5.93994	0.13916	0.000152588	
5.93719	0.136719	0.000305176	
5.93536	0.135193	0.000152588	
5.93506	0.135498	0.00152588	
5.93445	0.135193	0.000305176	
5.93445	0.131836	0.000152588	
5.93475	0.13031	0.000457764	
5.93506	0.130615	0.000762939	
5.93506	0.130615	0.000610352	
5.93445	0.130005	0.000610352	
5.93536	0.126953	0.000152588	
5.93506	0.125427	0.000457764	
5.93292	0.124817	0	
5.93079	0.125427	0.00137329	
5.93048	0.125427	0.000305176	
5.93018	0.121765	0	
5.93018	0.12085	0.000610352	
5.92987	0.12085	0.000305176	
5.92987	0.120544	0.000610352	
5.93048	0.120544	0.000305176	
5.92987	0.116882	0.000457764	
5.93048	0.115356	0.000305176	
5.93018	0.115356	0	
5.93018	0.115662	0.00167847	
5.92773	0.115356	0.000457764	
5.92499	0.11261	0.000457764	
5.92529	0.110779	0.000305176	
5.92529	0.110474	0	
5.9256	0.109863	0.000457764	
5.92529	0.107422	0.000457764	
5.92529	0.105591	0.000152588	
5.92499	0.105286	0.000152588	
5.92468	0.106201	-0.000915527	
5.92499	0.105286	0.00198364	
5.92499	0.102539	0.000915527	
5.92529	0.101013	0.000152588	
5.92285	0.101013	0.000457764	
5.92072	0.101013	0.000457764	
5.92072	0.101013	0.000305176	
5.91919	0.0970459	0.000305176	
5.9201	0.0964355	0.000152588	
5.91949	0.0961304	0.000305176	
5.92041	0.09552	-0.000915527	
5.9201	0.0952148	0.00183105	
5.92072	0.0918579	0.000152588	
5.92072	0.0909424	-0.000152588	
5.92041	0.0912476	0.000762939	
5.92041	0.0909424	0.000457764	
5.91797	0.0906372	0.000610352	
5.91553	0.0881958	0.000305176	
5.91492	0.0860596	0.000305176	
5.91553	0.0854492	0.000610352	
5.91553	0.0860596	-0.000610352	
5.91522	0.0854492	0.00167847	
5.91553	0.0827026	-0.000152588	
5.91522	0.0808716	0.000305176	
5.91583	0.0811768	0.000457764	
5.91492	0.0811768	0.000457764	
5.91553	0.0805664	0.000610352	
5.91522	0.0784302	0.000610352	
5.91309	0.0772095	0.000762939	
5.91064	0.0775146	0.000305176	
5.91064	0.0765991	-0.000762939	
5.91034	0.0765991	0.00167847	
5.91034	0.0732422	0.000457764	
5.91034	0.0720215	0	
5.91034	0.0720215	0.000152588	
5.91034	0.0726318	0.000457764	
5.91034	0.0720215	0.000152588	
5.91064	0.0686646	0.000152588	
5.91064	0.0674438	0.000305176	
5.91034	0.0674438	0.000152588	
5.9079	0.0668335	-0.00106812	
5.90637	0.0671387	0.00167847	
5.90546	0.0665283	0.000762939	
5.90546	0.0640869	0.000457764	
5.90546	0.0628662	0.000305176	
5.90546	0.062561	0.000152588	
5.90546	0.062561	0.000305176	
5.90515	0.0619507	0.000762939	
5.90454	0.0588989	0.000305176	
5.90546	0.0570679	0.000305176	
5.90607	0.057373	-0.000457764	
5.90515	0.0567627	0.00152588	
5.90576	0.0570679	0	
5.90363	0.057373	0	
5.90118	0.0540161	0.000457764	
5.90027	0.0521851	0.000610352	
5.89996	0.0524902	0.000305176	
5.89996	0.0521851	0.000305176	
5.90088	0.0518799	0.000305176	
5.90027	0.0494385	0.000457764	
5.90057	0.0479126	-0.000457764	
5.90057	0.0476074	0.00137329	
5.89996	0.0469971	-0.000152588	
5.90088	0.0469971	-0.000152588	
5.90057	0.0473022	0.000610352	
5.90057	0.045166	0.000305176	
5.89783	0.0427246	0.000610352	
5.8963	0.0430298	0.000457764	
5.89508	0.0427246	0.000457764	
5.8963	0.0421143	0.000610352	
5.89508	0.0427246	-0.000610352	
5.89569	0.0396729	0.00137329	
5.8963	0.0378418	0.000152588	
5.89539	0.038147	0.000305176	
5.89478	0.0372314	0.000305176	
5.89569	0.038147	0	
5.896	0.0369263	-0.000152588	
5.89569	0.0335693	0.000305176	
5.89569	0.0323486	0.000457764	
5.89294	0.0326538	0.000457764	
5.89111	0.0326538	-0.00106812	
5.89111	0.0323486	0.00183105	
5.89081	0.0326538	0.000610352	
5.89081	0.0320435	0.000457764	
5.89081	0.0296021	0.000305176	
5.89111	0.0280762	0.000305176	
5.8902	0.0274658	0.000610352	
5.89081	0.0274658	0.000610352	
5.8905	0.0280762	0	
5.8902	0.0274658	0.000152588	
5.8905	0.0244141	-0.000610352	
5.8905	0.0228882	0.0012207	
5.88806	0.0234985	0.000457764	
5.88593	0.0231934	0.000152588	
5.88531	0.022583	0.000457764	
5.88531	0.0231934	0.000457764	
5.88593	0.0231934	0.000610352	
5.88501	0.0201416	0.000610352	
5.88562	0.0183105	0.000457764	
5.88562	0.0177002	0.000305176	
5.88531	0.0177002	-0.000610352	
5.88562	0.0180054	0.00137329	
5.88623	0.0183105	0.000152588	
5.88531	0.0183105	0.000152588	
5.88531	0.0180054	0.000457764	
5.88531	0.0149536	0.000457764	
5.88409	0.0134277	0.000152588	
5.88135	0.0128174	0.000762939	
5.88074	0.0131226	0.000762939	
5.88043	0.0134277	0.000457764	
5.88013	0.0137329	-0.000762939	
5.88074	0.0128174	0.00183105	
5.88013	0.0128174	0.000457764	
5.88043	0.0106812	0.000610352	
5.88013	0.00823975	0.000305176	
5.88074	0.00823975	0.000305176	
5.88104	0.00762939	0.000305176	
5.88074	0.00762939	0.000152588	
5.88043	0.00823975	0.000610352	
5.88013	0.00854492	0.000305176	
5.87799	0.00793457	-0.000915527	
5.87616	0.00518799	0.00183105	
5.87585	0.00366211	0.000457764	
5.87555	0.00335693	0.000610352	
5.87555	0.00366211	0.000457764	
5.87555	0.00335693	0.000305176	
5.87616	0.00305176	0.000457764	
5.87585	0.00335693	0.000305176	
5.87585	0.00335693	0.000457764	
5.87585	0.00305176	0.000152588	
5.87585	0.00244141	-0.00106812	
5.87555	0	0.00137329	
5.87585	-0.000915527	0.000610352	
5.87616	-0.00213623	0.000305176	
5.87372	-0.000915527	0.000457764	
5.87158	-0.00152588	0.000610352	
5.87067	-0.000915527	0.000305176	
5.87097	-0.0012207	0.000457764	
5.87097	-0.0012207	0.000610352	
5.87067	-0.000915527	0.000305176	
5.87097	-0.00183105	-0.00106812	
5.87067	-0.00457764	0.00152588	
5.87097	-0.00579834	0.000305176	
5.87067	-0.00640869	0.000305176	
5.87006	-0.00640869	0.000152588	
5.87006	-0.00610352	0.000305176	
5.87067	-0.00640869	0.000305176	
5.87097	-0.00610352	0.000457764	
5.86853	-0.00610352	0.000457764	
5.8667	-0.00640869	0.000457764	
5.86639	-0.00640869	-0.000610352	
5.86578	-0.00610352	0.00167847	
5.86578	-0.00640869	0.000610352	
5.86548	-0.00946045	0.000152588	
5.86639	-0.0106812	0.000305176	
5.86578	-0.0112915	0.000305176	
5.86609	-0.0112915	0.000152588	
5.86548	-0.0115967	0.000305176	
5.86639	-0.0109863	0.000457764	
5.86548	-0.0112915	0.000305176	
5.86609	-0.0109863	-0.000915527	
5.86517	-0.0106812	0.00167847	
5.86517	-0.0112915	0.000610352	
5.86334	-0.0112915	0.000610352	
5.86121	-0.0112915	0.000152588	
5.86029	-0.0115967	0.000305176	
5.86182	-0.0140381	0.000152588	
5.86121	-0.0158691	0.000762939	
5.8609	-0.0158691	0	
5.86121	-0.0158691	0.000152588	
5.86121	-0.0158691	-0.000762939	
5.8609	-0.0158691	0.00152588	
5.8609	-0.0164795	0.000305176	
5.8606	-0.0158691	0.000305176	
5.8606	-0.0161743	0.000305176	
5.86121	-0.0158691	0.000457764	
5.86121	-0.0161743	0.000457764	
5.85938	-0.0158691	0.000457764	
5.85724	-0.0161743	0.000457764	
5.85571	-0.0158691	0.000610352	
5.85602	-0.0158691	-0.000762939	
5.85602	-0.0161743	0.00137329	
5.85632	-0.0161743	0.000152588	
5.85632	-0.0164795	0.000610352	
5.85602	-0.0189209	0.000457764	
5.85602	-0.0204468	0.000610352	
5.85632	-0.0210571	0.000152588	
5.85632	-0.0219727	0.000305176	
5.85602	-0.0210571	0.000457764	
5.85571	-0.020752	0.000610352	
5.85571	-0.0213623	-0.000762939	
5.85632	-0.0210571	0.00137329	
5.85266	-0.0210571	0.000610352	
5.85205	-0.0213623	0.000152588	
5.85114	-0.0213623	0.000305176	
5.85114	-0.0210571	0.000152588	
5.85144	-0.0204468	-0.000152588	
5.85083	-0.0216675	0.000610352	
5.85114	-0.0210571	0.000457764	
5.85144	-0.0210571	0.000152588	
5.85114	-0.0210571	-0.000915527	
5.85052	-0.020752	0.00167847	
5.85144	-0.0210571	0.000610352	
5.85144	-0.0210571	0.000305176	
5.85083	-0.0213623	0.000305176	
5.85114	-0.0213623	0.000457764	
5.85144	-0.0210571	0.000457764	
5.84869	-0.0204468	0	
5.84686	-0.020752	0.000457764	
5.84656	-0.0216675	0.000152588	
5.84625	-0.0210571	-0.000915527	
5.84686	-0.0210571	0.0012207	
5.84595	-0.0213623	0.000152588	
5.84564	-0.020752	0.000610352	
5.84656	-0.0210571	0.000305176	
5.84656	-0.0213623	0.000610352	
5.84595	-0.0244141	0.000457764	
5.84625	-0.0259399	0.000457764	
5.84686	-0.0259399	0.000610352	
5.84595	-0.0259399	0	
5.84656	-0.0259399	-0.00106812	
5.84625	-0.0256348	0.00152588	
5.84351	-0.0265503	0	
5.84167	-0.0265503	0.000152588	
5.84137	-0.0256348	0.000305176	
5.84137	-0.0256348	0.000610352	
5.84106	-0.0262451	0.000305176	
5.84137	-0.0262451	0.000610352	
5.84167	-0.0256348	0.000305176	
5.84137	-0.0262451	0.000305176	
5.84167	-0.0259399	-0.000762939	
5.84167	-0.0259399	0.00167847	
5.84137	-0.0262451	0.000457764	
5.84137	-0.0262451	0.000457764	
5.84106	-0.0262451	0.000457764	
5.84137	-0.0256348	0.000152588	
5.84106	-0.0262451	0.000152588	
5.83893	-0.0268555	0.000152588	
5.8374	-0.0259399	0.000305176	
5.83588	-0.0259399	0.000152588	
5.83649	-0.0256348	-0.000762939	
5.83679	-0.0262451	0.0012207	
5.83588	-0.0262451	0.000457764	
5.83588	-0.0259399	0.000457764	
5.83649	-0.0265503	0.000457764	
5.8371	-0.0253296	0.000762939	
5.83618	-0.0262451	0.000610352	
5.83649	-0.0259399	0.000305176	
5.83679	-0.0262451	0	
5.83618	-0.0262451	0.000457764	
5.83618	-0.0262451	-0.00106812	
5.83618	-0.0262451	0.00152588	
5.83344	-0.0262451	0.000152588	
5.8316	-0.0256348	0.000457764	
5.8316	-0.0268555	0.000762939	
5.8313	-0.0259399	0.000610352	
5.8316	-0.0256348	0.000457764	
5.8316	-0.0259399	0.000610352	
5.83191	-0.0259399	0.000457764	
5.8316	-0.0259399	0.000610352	
5.83191	-0.0259399	-0.000762939	
5.83099	-0.0265503	0.00152588	
5.83099	-0.0256348	0	
5.8316	-0.0262451	0.000305176	
5.8316	-0.0262451	0.000610352	
5.83099	-0.0259399	0.000305176	
5.83099	-0.0231934	0.000610352	
5.82916	-0.0216675	0.000152588	
5.82794	-0.0210571	0.000610352	
5.82672	-0.0210571	0.000762939	
5.82703	-0.020752	-0.000457764	
5.82642	-0.0210571	0.00137329	
5.82642	-0.0213623	0.000457764	
5.82642	-0.0213623	0.000152588	
5.82733	-0.0210571	0.000305176	
5.82672	-0.0213623	0.000152588	
5.82672	-0.0213623	0.000610352	
5.82642	-0.020752	0.000152588	
5.82672	-0.0213623	0.000457764	
5.82642	-0.0213623	0.000610352	
5.82642	-0.0213623	-0.000762939	
5.82611	-0.0213623	0.00167847	
5.82397	-0.0210571	0.000610352	
5.82245	-0.020752	0.000457764	
5.82214	-0.0210571	0.000610352	
5.82153	-0.0204468	0.000152588	
5.82184	-0.020752	0.000457764	
5.82184	-0.0213623	0.000305176	
5.82123	-0.0210571	0.000305176	
5.82153	-0.0213623	0.000152588	
5.82123	-0.0210571	-0.000762939	
5.82123	-0.0213623	0.00137329	
5.82153	-0.020752	0.000610352	
5.82123	-0.020752	0.000305176	
5.82184	-0.0213623	0.000305176	
5.82123	-0.0216675	0.000305176	
5.82184	-0.0213623	0.000152588	
5.81879	-0.0213623	0.000457764	
5.81726	-0.020752	0.000457764	
5.81696	-0.0210571	0.000762939	
5.81635	-0.0213623	-0.000762939	
5.81665	-0.020752	0.00152588	
5.81665	-0.0210571	0.000152588	
5.81635	-0.0210571	0	
5.81696	-0.0210571	0.000152588	
5.81665	-0.0210571	0.000457764	
5.81665	-0.0210571	0.000152588	
5.81726	-0.0204468	0.000457764	
5.81604	-0.0210571	0.000305176	
5.81635	-0.0213623	0.000457764	
5.81665	-0.0213623	-0.000762939	
5.81757	-0.0177002	0.00167847	
5.81421	-0.0164795	0.000610352	
5.81268	-0.0161743	0.000457764	
5.81207	-0.0158691	0.000305176	
5.81146	-0.0161743	0	
5.81146	-0.0158691	0.000152588	
5.81207	-0.0161743	0.000305176	
5.81116	-0.015564	0.000305176	
5.81207	-0.0158691	0.000610352	
5.81146	-0.0161743	-0.000915527	
5.81177	-0.0158691	0.0012207	
5.81146	-0.0161743	0.000305176	
5.81177	-0.0167847	0.000610352	
5.81207	-0.0152588	0.000457764	
5.81177	-0.015564	0.000762939	
5.81207	-0.0158691	0.000610352	
5.80994	-0.0164795	0.000305176	
5.80719	-0.0161743	0.000152588	
5.80688	-0.0161743	0	
5.80627	-0.0158691	-0.000762939	
5.80658	-0.015564	0.00137329	
5.80719	-0.0161743	-0.000152588	
5.80658	-0.0161743	0.000762939	
5.80658	-0.0164795	0.000610352	
5.80658	-0.0161743	0.000915527	
5.80719	-0.0158691	0.000152588	
5.80658	-0.0167847	0.000457764	
5.80688	-0.0164795	0.000610352	
5.80688	-0.0161743	0.000305176	
5.80688	-0.0158691	-0.000457764	
5.80414	-0.0164795	0.0012207	
5.80231	-0.0167847	0	
5.8017	-0.0158691	0.000762939	
5.8017	-0.0161743	0.000457764	
5.802	-0.0161743	0.000457764	
5.802	-0.0158691	0.000305176	
5.8017	-0.0161743	0.000305176	
5.8017	-0.0158691	0.000915527	
5.8017	-0.015564	0.000610352	
5.80231	-0.0161743	-0.000305176	
5.802	-0.0161743	0.0012207	
5.802	-0.015564	0	
5.8017	-0.0164795	0.000457764	
5.802	-0.0161743	0.000305176	
5.8017	-0.0158691	0.000305176	
5.79926	-0.0161743	0.000305176	
5.79742	-0.0161743	0.000457764	
5.79651	-0.0161743	0.000152588	
5.79742	-0.015564	0.000610352	
5.79712	-0.0128174	-0.000305176	
5.79712	-0.0115967	0.0012207	
5.79651	-0.0112915	0.000457764	
5.79651	-0.0109863	0.000762939	
5.79712	-0.0109863	0.000457764	
5.79712	-0.0112915	0.000457764	
5.79712	-0.0109863	0.000457764	
5.79742	-0.0109863	0.000762939	
5.79651	-0.0112915	0.000457764	
5.79681	-0.0109863	0.000305176	
5.79437	-0.0112915	-0.000457764	
5.79315	-0.012207	0.0012207	
5.79163	-0.0109863	-0.000152588	
5.79193	-0.0109863	0.000610352	
5.79193	-0.0109863	0.000305176	
5.79224	-0.0106812	0.000915527	
5.79224	-0.0109863	0.000457764	
5.79254	-0.0109863	0.000610352	
5.79193	-0.0112915	0.000762939	
5.79254	-0.0112915	0.000762939	
5.79224	-0.0119019	-0.000305176	
5.79163	-0.0109863	0.000152588	
5.79163	-0.0115967	-0.000152588	
5.79132	-0.0109863	0.000457764	
5.79163	-0.0109863	0.00167847	
5.78918	-0.0112915	0.000762939	
5.78766	-0.0109863	0.000762939	
5.78674	-0.0109863	0.000305176	
5.78735	-0.0115967	0.000457764	
5.78644	-0.0112915	0.000457764	
5.78735	-0.0112915	0.000915527	
5.78674	-0.0115967	0.000305176	
5.7843	-0.0112915	0	
5.78339	-0.0109863	0	
5.78186	-0.0112915	0.00137329	
5.78217	-0.0109863	0.000152588	
5.78247	-0.0109863	0	
5.78186	-0.010376	0.000152588	
5.78186	-0.0109863	0.000457764	
5.78217	-0.0112915	0.000305176	
5.78217	-0.0106812	0.000152588	
5.78217	-0.0109863	0.000457764	
5.78217	-0.0112915	0.000305176	
5.78156	-0.0109863	0.000305176	
5.78247	-0.0112915	0.00137329	
5.78247	-0.0112915	0.000305176	
5.78156	-0.0109863	0.000152588	
5.77972	-0.0106812	0.000152588	
5.7782	-0.0115967	0.000305176	
5.77759	-0.0112915	0.000305176	
5.77698	-0.0112915	0.000305176	
5.77698	-0.0109863	0.000457764	
5.77759	-0.0109863	0	
5.77728	-0.0112915	-0.000305176	
5.77728	-0.0112915	0.0012207	
5.77728	-0.0106812	0.000610352	
5.77698	-0.0109863	0.000152588	
5.77759	-0.0109863	0.000457764	
5.77759	-0.0112915	0.000610352	
5.77789	-0.0109863	0.000457764	
5.77728	-0.0112915	0.000457764	
5.77484	-0.0115967	0.000305176	
5.77271	-0.0115967	-0.000305176	
5.7724	-0.0112915	-0.000152588	
5.77209	-0.0106812	0.00106812	
5.7724	-0.0112915	0.000457764	
5.77209	-0.0109863	0.000305176	
5.77179	-0.0109863	0.000305176	
5.77209	-0.0106812	0.000305176	
5.7724	-0.0109863	0.000457764	
5.7724	-0.0112915	0.000610352	
5.77301	-0.0109863	0.000305176	
5.7724	-0.0106812	0	
5.77118	-0.0109863	-0.000152588	
5.77209	-0.0115967	0.00106812	
5.76935	-0.0106812	0.000305176	
5.76843	-0.0109863	0	
5.76691	-0.0115967	0.000305176	
5.76721	-0.0149536	0	
5.76752	-0.0158691	0.000305176	
5.76721	-0.0164795	0.000305176	
5.76782	-0.0170898	0.000457764	
5.76782	-0.0164795	0.000457764	
5.76813	-0.0161743	-0.000152588	
5.76721	-0.0164795	0.00137329	
5.76813	-0.0167847	0.000762939	
5.76721	-0.0161743	0.000305176	
5.76721	-0.0167847	0	
5.76752	-0.0161743	0.000457764	
5.76447	-0.0161743	0	
5.76263	-0.0161743	0.000305176	
5.76294	-0.0161743	0.000457764	
5.76233	-0.0167847	-0.000152588	
5.76233	-0.015564	-0.000152588	
5.76233	-0.0158691	0.00152588	
5.76233	-0.0158691	0.000762939	
5.76294	-0.0158691	0.000457764	
5.76233	-0.0161743	0.000457764	
5.76233	-0.015564	0.000610352	
5.76294	-0.0158691	0.000305176	
5.76263	-0.0164795	0.000457764	
5.76324	-0.0164795	0.000457764	
5.76202	-0.0164795	-0.000152588	
5.76233	-0.0161743	-0.000305176	
5.75989	-0.0158691	0.00152588	
5.75867	-0.0161743	0.000457764	
5.75745	-0.0158691	0.000457764	
5.75775	-0.0164795	0.000305176	
5.75745	-0.0161743	0.000305176	
5.75714	-0.0158691	0.000457764	
5.75745	-0.0164795	0.000610352	
5.75714	-0.0161743	0.000457764	
5.75775	-0.0161743	-0.000152588	
5.75745	-0.0164795	0	
5.75745	-0.0161743	0.0012207	
5.75775	-0.0161743	0.000305176	
5.75745	-0.0161743	0	
5.75775	-0.0161743	0.000457764	
5.7547	-0.0158691	0.000305176	
5.75317	-0.0158691	0	
5.75226	-0.0158691	0.000305176	
5.75226	-0.0161743	0.000457764	
5.75317	-0.0195313	0.000457764	
5.75195	-0.0210571	0	
5.75317	-0.0213623	0.0012207	
5.75226	-0.0213623	0.000610352	
5.75256	-0.0213623	0.000305176	
5.75256	-0.0213623	0.000457764	
5.75226	-0.0204468	0.000762939	
5.75287	-0.0213623	0.000610352	
5.75287	-0.0213623	0.000305176	
5.75287	-0.0210571	0.000305176	
5.75012	-0.0204468	-0.000305176	
5.74768	-0.020752	-0.000610352	
5.74799	-0.020752	0.00152588	
5.74677	-0.0213623	0.000762939	
5.74799	-0.0210571	0.000610352	
5.74738	-0.0204468	0.000610352	
5.74738	-0.0204468	0.000457764	
5.74799	-0.0213623	0.000610352	
5.74738	-0.0216675	0.000610352	
5.74799	-0.0213623	0.000152588	
5.74768	-0.0210571	0	
5.74799	-0.0219727	-0.000610352	
5.74799	-0.020752	0.00106812	
5.74707	-0.0210571	0.000305176	
5.74493	-0.0210571	0.000457764	
5.7431	-0.0210571	0.000305176	
5.74249	-0.0201416	0.000305176	
5.7431	-0.020752	0.000915527	
5.7428	-0.0216675	0.000610352	
5.7431	-0.0244141	0.000152588	
5.7428	-0.0259399	0	
5.7428	-0.0265503	-0.000305176	
5.74219	-0.0262451	0.00106812	
5.74249	-0.0265503	-0.000152588	
5.74249	-0.0262451	0.000305176	
5.74188	-0.0256348	0.000457764	
5.7428	-0.0256348	0	
5.7428	-0.0256348	0.000305176	
5.74249	-0.0262451	0.000305176	
5.74005	-0.0259399	0.000152588	
5.73792	-0.0259399	0.000152588	
5.7373	-0.0265503	0	
5.7373	-0.0259399	0.000305176	
5.73792	-0.0262451	0.000305176	
5.73761	-0.0259399	0.000305176	
5.73792	-0.0265503	0.000457764	
5.73792	-0.0265503	0.00106812	
5.73761	-0.0259399	0.000152588	
5.73822	-0.0265503	0	
5.73792	-0.0259399	0.000457764	
5.73761	-0.0256348	0	
5.7373	-0.0262451	0.000762939	
5.73761	-0.0256348	0.000457764	
5.73761	-0.0265503	0.000610352	
5.73792	-0.0296021	0.000305176	
5.73761	-0.0311279	-0.000152588	
5.737	-0.0314331	0.00137329	
5.73547	-0.0302124	0.000305176	
5.73303	-0.0305176	0.000457764	
5.73273	-0.0305176	0.000305176	
5.73242	-0.0305176	0	
5.73273	-0.0305176	0.000457764	
5.73303	-0.0302124	0.000762939	
5.73273	-0.0311279	0.000457764	
5.73212	-0.0308228	0.000152588	
5.73273	-0.0308228	-0.000305176	
5.73273	-0.0305176	0.00137329	
5.73303	-0.0305176	0.000457764	
5.73334	-0.0311279	0.000457764	
5.73303	-0.0308228	0.000457764	
5.73242	-0.0305176	0.000152588	
5.73029	-0.0311279	0.000762939	
5.72876	-0.0308228	0.000457764	
5.72815	-0.0308228	0	
5.72784	-0.0305176	0.000152588	
5.72845	-0.0308228	-0.000457764	
5.72693	-0.0335693	0.00106812	
5.72845	-0.0363159	0.000305176	
5.72754	-0.0357056	0.000152588	
5.72815	-0.0354004	0.000457764	
5.72815	-0.0357056	0.000152588	
5.72754	-0.0357056	0.000457764	
5.72784	-0.0357056	0.000152588	
5.72784	-0.0360107	0.000152588	
5.72845	-0.0354004	0.000457764	
5.7254	-0.0354004	-0.000762939	
5.72357	-0.0360107	0.00137329	
5.72327	-0.0357056	0.000457764	
5.72327	-0.0354004	0.000457764	
5.72296	-0.0360107	0.000305176	
5.72266	-0.0354004	-0.000152588	
5.72205	-0.0357056	0.000305176	
5.72296	-0.0363159	0.000610352	
5.72296	-0.0354004	0.000762939	
5.72296	-0.0357056	0.000457764	
5.72266	-0.0357056	-0.000610352	
5.72235	-0.0357056	0.0012207	
5.72296	-0.0357056	0.000610352	
5.72296	-0.0357056	0.000457764	
5.71991	-0.0393677	0.000610352	
5.71808	-0.039978	0	
5.71808	-0.0415039	0.000915527	
5.71838	-0.0405884	0.000610352	
5.71808	-0.0402832	0.000457764	
5.71777	-0.0402832	0.000457764	
5.71808	-0.0405884	-0.000457764	
5.71777	-0.0408936	0.00152588	
5.71747	-0.0402832	0.000915527	
5.71808	-0.0405884	0.000457764	
5.71838	-0.0411987	0.000305176	
5.71777	-0.0405884	0	
5.71808	-0.0402832	0.00106812	
5.71747	-0.0405884	0	
5.71716	-0.0408936	0	
5.71503	-0.0405884	0	
5.71411	-0.0405884	-0.000457764	
5.7135	-0.039978	0.00106812	
5.71259	-0.0405884	0.000457764	
5.71259	-0.0405884	0.000457764	
5.71259	-0.0402832	0.000305176	
5.71289	-0.0405884	0.000305176	
5.7132	-0.0411987	0.00106812	
5.71259	-0.0439453	0.000305176	
5.71259	-0.0454712	0.000457764	
