model_ppg1.acq
0.5 msec/sample
3 channels
RSP, X, RSPEC-R
Volts
PPG, X, PPGED-R
Volts
ECG, Y, RSPEC-R
mV
CH1	CH2	CH13	
329097	329097	329097	
1.45935	-0.0457764	0.000915527	
1.46149	-0.045166	0.000152588	
1.46149	-0.0454712	0.000457764	
1.46454	-0.0460815	0.000457764	
1.46637	-0.045166	0.000762939	
1.46973	-0.0454712	0.000305176	
1.47156	-0.0460815	0.000610352	
1.4743	-0.0494385	0.000305176	
1.47644	-0.0506592	0.000610352	
1.4801	-0.0509644	0	
1.48193	-0.050354	0.000457764	
1.48468	-0.0515747	0	
1.4859	-0.0500488	0.000152588	
1.48682	-0.0509644	0	
1.48987	-0.0509644	0.000610352	
1.49109	-0.0500488	0.000152588	
1.49445	-0.050354	0.000457764	
1.49597	-0.0506592	0.000457764	
1.49994	-0.0506592	0.000457764	
1.50116	-0.0509644	0.000152588	
1.50421	-0.0509644	0.000915527	
1.50574	-0.0500488	0.000610352	
1.50909	-0.050354	0.000610352	
1.51093	-0.050354	0.000305176	
1.51398	-0.0506592	0.000152588	
1.51642	-0.050354	0	
1.51917	-0.050354	0.000457764	
1.5213	-0.0506592	0.000610352	
1.52405	-0.0506592	0.000305176	
1.52588	-0.0512695	0	
1.52893	-0.0506592	0.00106812	
1.53046	-0.050354	0.000762939	
1.53442	-0.050354	0.000610352	
1.53564	-0.0506592	0.000610352	
1.53961	-0.0500488	0.000762939	
1.54083	-0.050354	0	
1.54175	-0.050354	0.000762939	
1.54388	-0.0506592	0.000152588	
1.54572	-0.0509644	0	
1.54907	-0.050354	0.000152588	
1.55121	-0.050354	0.000610352	
1.55457	-0.0506592	0.000305176	
1.55548	-0.0509644	0.000152588	
1.55884	-0.0540161	0.000305176	
1.56158	-0.055542	0.000762939	
1.56342	-0.0558472	0.000305176	
1.56494	-0.055542	0.000610352	
1.56921	-0.055542	0.000457764	
1.57043	-0.0558472	0.000457764	
1.5741	-0.0552368	0.000152588	
1.57501	-0.0561523	0.000610352	
1.57867	-0.0552368	0.000457764	
1.57959	-0.0558472	0.000152588	
1.58417	-0.0558472	0.000457764	
1.58783	-0.0558472	0.000152588	
1.58936	-0.055542	0.000305176	
1.59271	-0.055542	0.000610352	
1.59515	-0.0558472	0.000762939	
1.59821	-0.055542	0.000762939	
1.59943	-0.055542	0	
1.60278	-0.055542	0.0012207	
1.60431	-0.0552368	0.000305176	
1.60828	-0.0558472	0.000305176	
1.6098	-0.0552368	0.000305176	
1.61224	-0.0558472	0	
1.61438	-0.055542	-0.000305176	
1.61835	-0.055542	0.000610352	
1.61896	-0.055542	0.000305176	
1.62292	-0.0549316	0.000610352	
1.62506	-0.0540161	0	
1.62781	-0.0552368	0.0012207	
1.62903	-0.055542	0.000457764	
1.63269	-0.055542	0.000457764	
1.63483	-0.055542	0.000457764	
1.63757	-0.0558472	0.000457764	
1.63971	-0.055542	-0.000152588	
1.64246	-0.055542	0.000610352	
1.64764	-0.0564575	0.000305176	
1.64917	-0.0588989	0.000305176	
1.65253	-0.0601196	-0.000152588	
1.65466	-0.0601196	0.000762939	
1.6571	-0.06073	0.000457764	
1.65924	-0.06073	0.000305176	
1.6626	-0.0604248	0.000305176	
1.66382	-0.06073	0.000610352	
1.66687	-0.06073	0.000152588	
1.6687	-0.06073	0.000457764	
1.67236	-0.0610352	0.000457764	
1.67328	-0.0601196	0.000457764	
1.67786	-0.0604248	0	
1.68182	-0.0598145	0.000457764	
1.68396	-0.0601196	0.000305176	
1.6864	-0.06073	0.000305176	
1.68854	-0.0601196	0.000305176	
1.6922	-0.0604248	0.000457764	
1.69373	-0.0604248	0.000152588	
1.69769	-0.0604248	0.000915527	
1.69922	-0.0598145	0.000762939	
1.70227	-0.06073	0.000457764	
1.70593	-0.0604248	0.000152588	
1.70837	-0.0598145	0.000610352	
1.71204	-0.0598145	0.000305176	
1.71295	-0.0601196	0.000762939	
1.716	-0.0601196	0.000610352	
1.71906	-0.0604248	0.000152588	
1.7215	-0.0610352	0.000152588	
1.72333	-0.0604248	0.000457764	
1.72607	-0.0601196	0.000762939	
1.73065	-0.0604248	0.000305176	
1.73279	-0.0604248	0.000152588	
1.73615	-0.0604248	0.00106812	
1.73798	-0.0604248	0.000762939	
1.74072	-0.0601196	0.000305176	
1.74316	-0.06073	0.000610352	
1.74622	-0.0613403	0.000457764	
1.7511	-0.0634766	0.000152588	
1.75293	-0.0643921	0.000610352	
1.75629	-0.0653076	0.000457764	
1.75781	-0.0646973	0.000152588	
1.76086	-0.0650024	0	
1.763	-0.065918	0.000762939	
1.76636	-0.0650024	0.000152588	
1.77094	-0.0656128	0.000457764	
1.77277	-0.0653076	0.000457764	
1.77582	-0.0650024	0.000762939	
1.77795	-0.0650024	0.000305176	
1.7807	-0.0650024	0.000457764	
1.78223	-0.0653076	0.000305176	
1.78619	-0.0656128	0.000457764	
1.78986	-0.0656128	0.000152588	
1.7923	-0.0653076	0.000305176	
1.79626	-0.0656128	0.000305176	
1.79749	-0.0650024	0	
1.79962	-0.0656128	0.000305176	
1.80298	-0.0653076	0.000152588	
1.80542	-0.0650024	0	
1.81	-0.0656128	0.000762939	
1.81244	-0.065918	0.000457764	
1.81488	-0.0646973	0.000305176	
1.81641	-0.0650024	0.000152588	
1.82037	-0.0656128	0.000915527	
1.82465	-0.0653076	0.000457764	
1.82617	-0.065918	0.000762939	
1.83014	-0.0650024	0.000152588	
1.83167	-0.0650024	0.000152588	
1.83533	-0.0653076	-0.000305176	
1.83929	-0.0650024	0.000762939	
1.84174	-0.0653076	0.000305176	
1.8457	-0.0653076	0.000305176	
1.84631	-0.0662231	0	
1.84998	-0.0689697	0.000762939	
1.85425	-0.0695801	0.000610352	
1.85669	-0.0704956	0.000457764	
1.85974	-0.0701904	0.000305176	
1.86188	-0.071106	0.000610352	
1.86432	-0.0704956	0.000305176	
1.8689	-0.0704956	0.000457764	
1.87164	-0.0708008	-0.000152588	
1.87408	-0.0704956	0.000305176	
1.87592	-0.0701904	0.000152588	
1.87958	-0.0695801	0.000610352	
1.88385	-0.0701904	0.000457764	
1.88568	-0.0698853	0	
1.88965	-0.0698853	0.000457764	
1.89117	-0.0701904	0.000762939	
1.89423	-0.0708008	0.000305176	
1.8985	-0.0695801	0.000762939	
1.90033	-0.0704956	0.000152588	
1.9043	-0.0698853	0.000152588	
1.90552	-0.0708008	0	
1.90948	-0.0701904	0.000457764	
1.91345	-0.0701904	0.000305176	
1.91589	-0.0704956	0.000457764	
1.91925	-0.0701904	0.000457764	
1.92017	-0.0704956	0	
1.92444	-0.0704956	0.000152588	
1.9278	-0.0698853	0.000762939	
1.92993	-0.0698853	0.000610352	
1.93359	-0.0701904	0.000762939	
1.93573	-0.0704956	0.000305176	
1.93939	-0.0701904	0.000915527	
1.94366	-0.0698853	0.000305176	
1.94519	-0.0698853	0.000152588	
1.94885	-0.0701904	0.000762939	
1.95313	-0.0708008	0.000152588	
1.95465	-0.0704956	-0.000305176	
1.95862	-0.0732422	0.00106812	
1.95984	-0.0753784	0.000152588	
1.9632	-0.0750732	0.000457764	
1.96777	-0.0759888	0	
1.9696	-0.0747681	0.00106812	
1.97235	-0.0750732	0.000457764	
1.97815	-0.0753784	0.000610352	
1.97998	-0.0747681	0.000457764	
1.98303	-0.0756836	0.000457764	
1.98486	-0.0750732	-0.000152588	
1.98853	-0.0753784	0.000610352	
1.99249	-0.0747681	0.000152588	
1.99493	-0.0750732	0.000152588	
1.99768	-0.0750732	-0.000152588	
2.00226	-0.0750732	0.000610352	
2.00439	-0.0747681	0.000305176	
2.00775	-0.0747681	0.000305176	
2.00958	-0.0750732	0.000305176	
2.01324	-0.0759888	0.000152588	
2.01721	-0.0753784	0.000305176	
2.01935	-0.0753784	0.000762939	
2.02271	-0.0753784	0.000152588	
2.02759	-0.0747681	0.000610352	
2.02972	-0.0753784	0	
2.03217	-0.0750732	0.000762939	
2.034	-0.0747681	0.000305176	
2.03705	-0.0753784	0.000152588	
2.04193	-0.0756836	0.000610352	
2.04376	-0.0750732	0.000152588	
2.04712	-0.0741577	0.000152588	
2.0517	-0.0750732	0.000457764	
2.05414	-0.0756836	0.000457764	
2.05658	-0.0750732	0.000762939	
2.06116	-0.0753784	0.000152588	
2.0636	-0.0750732	0.00106812	
2.06665	-0.0750732	0.000610352	
2.06848	-0.0747681	0.000457764	
2.07184	-0.0750732	0.000305176	
2.07611	-0.0756836	0.000305176	
2.07794	-0.0753784	0	
2.08191	-0.0753784	0.000915527	
2.08649	-0.078125	0.000152588	
2.08801	-0.0799561	0.000457764	
2.09167	-0.0802612	0.000457764	
2.09564	-0.0805664	0.000915527	
2.09778	-0.0796509	0.000762939	
2.10144	-0.0796509	0.000610352	
2.10602	-0.0793457	0.000457764	
2.10846	-0.0796509	0.000305176	
2.11121	-0.0799561	0.000152588	
2.11273	-0.0796509	0.000305176	
2.1167	-0.0802612	0	
2.12006	-0.0796509	0.000305176	
2.12341	-0.0802612	-0.000152588	
2.12677	-0.0802612	0.000457764	
2.13043	-0.0802612	0.000457764	
2.13226	-0.0799561	0.000305176	
2.13593	-0.0799561	0.000305176	
2.1405	-0.0787354	0.000305176	
2.14294	-0.0802612	0.000152588	
2.146	-0.0802612	0.000915527	
2.14935	-0.0805664	0.000610352	
2.1524	-0.0793457	0.000457764	
2.15668	-0.0796509	0.000152588	
2.16064	-0.0805664	0.000610352	
2.16248	-0.0796509	0.000457764	
2.16583	-0.0799561	0.000152588	
2.1701	-0.0799561	0.000457764	
2.17194	-0.0796509	0.000457764	
2.1759	-0.0799561	0	
2.18048	-0.0799561	0.000762939	
2.1817	-0.0796509	0.000915527	
2.18536	-0.0793457	0.000762939	
2.18964	-0.0799561	0	
2.19238	-0.0796509	0.000457764	
2.19482	-0.0799561	0.000457764	
2.19666	-0.0802612	0.000610352	
2.19971	-0.0793457	0.000457764	
2.20459	-0.0799561	0.000152588	
2.20642	-0.0805664	0.000305176	
2.20978	-0.0796509	0.000915527	
2.21436	-0.0796509	0.000305176	
2.21619	-0.0802612	0.000457764	
2.21985	-0.0796509	-0.000152588	
2.22412	-0.0808716	0.000762939	
2.22626	-0.0830078	0.000610352	
2.22961	-0.0845337	0.000305176	
2.23389	-0.0848389	0.000457764	
2.23572	-0.0845337	0.000915527	
2.23969	-0.0854492	0.000152588	
2.24365	-0.0848389	0.000457764	
2.24609	-0.0845337	0.000152588	
2.24945	-0.0848389	0.000305176	
2.25403	-0.0845337	0.000152588	
2.25647	-0.0842285	0.000762939	
2.25861	-0.0845337	0.000305176	
2.26379	-0.0854492	0	
2.26563	-0.0848389	0.000762939	
2.26929	-0.0845337	0.000915527	
2.27417	-0.0848389	0.000457764	
2.276	-0.0845337	0.000457764	
2.27936	-0.085144	0.000457764	
2.28394	-0.0848389	0	
2.28577	-0.0848389	0	
2.28943	-0.085144	0.000610352	
2.29401	-0.0854492	0.000305176	
2.29858	-0.085144	0	
2.30011	-0.0848389	0.000305176	
2.30408	-0.085144	0.000305176	
2.30774	-0.0848389	0	
2.31049	-0.085144	0.000762939	
2.31415	-0.0842285	0.000762939	
2.31781	-0.085144	0.000305176	
2.32056	-0.085144	-0.000152588	
2.3233	-0.0848389	0.000915527	
2.32758	-0.0848389	0.000915527	
2.33032	-0.0848389	0.000915527	
2.33429	-0.0842285	0.000610352	
2.33856	-0.0848389	0.000305176	
2.3407	-0.0854492	0	
2.34375	-0.0845337	0.000610352	
2.34802	-0.085144	0.000305176	
2.34955	-0.0848389	0.000305176	
2.35352	-0.085144	0	
2.35718	-0.0845337	0.000915527	
2.35931	-0.0848389	0.000457764	
2.36298	-0.0845337	0.000762939	
2.36816	-0.085144	0.000457764	
2.37	-0.085144	0.000305176	
2.37335	-0.085144	0.000305176	
2.37762	-0.0848389	0.00106812	
2.37885	-0.0848389	0.000152588	
2.38312	-0.0848389	0	
2.38708	-0.0848389	0.000305176	
2.38922	-0.0848389	0.000610352	
2.39349	-0.0857544	0.000610352	
2.39685	-0.085144	0.000457764	
2.40204	-0.0845337	0.000457764	
2.40387	-0.0848389	0.000915527	
2.40784	-0.0845337	0.000152588	
2.4118	-0.0845337	0.000915527	
2.41364	-0.0857544	0.000152588	
2.41852	-0.0891113	0.000152588	
2.42218	-0.0900269	0.000152588	
2.42371	-0.0900269	0.000610352	
2.42737	-0.0900269	0.000305176	
2.43164	-0.0897217	0.000457764	
2.43408	-0.0900269	0.000457764	
2.43774	-0.0897217	0.000305176	
2.44141	-0.0894165	0.000305176	
2.44354	-0.0894165	0.000610352	
2.44659	-0.0900269	0.000610352	
2.45117	-0.0900269	0.000762939	
2.45331	-0.0906372	0.000152588	
2.45697	-0.0894165	0.000762939	
2.46094	-0.0894165	0.000457764	
2.46674	-0.090332	0.000457764	
2.46765	-0.0900269	0.000305176	
2.47192	-0.0897217	0	
2.4762	-0.0897217	-0.000152588	
2.47803	-0.0897217	0.000457764	
2.48108	-0.0897217	0.000305176	
2.48566	-0.0900269	0.000457764	
2.4884	-0.0900269	0.000152588	
2.49146	-0.0891113	0.000762939	
2.49573	-0.0891113	0.000762939	
2.49725	-0.0897217	0.000457764	
2.50092	-0.0894165	0.000915527	
2.50549	-0.0900269	0.000305176	
2.50732	-0.0891113	0	
2.51068	-0.0897217	0.000610352	
2.51617	-0.0900269	0.000457764	
2.52075	-0.090332	0.000305176	
2.52258	-0.0894165	0.000152588	
2.52563	-0.0891113	0.000762939	
2.53082	-0.0900269	0.000457764	
2.53174	-0.0894165	0.000152588	
2.53571	-0.0891113	0.000305176	
2.54028	-0.0891113	0.000915527	
2.54211	-0.0897217	0.000457764	
2.54578	-0.0891113	0.000762939	
2.55005	-0.0897217	0.000305176	
2.55249	-0.090332	0.000457764	
2.55524	-0.0900269	0	
2.56012	-0.0900269	0.000762939	
2.56531	-0.0900269	0.000457764	
2.56714	-0.0897217	0.000457764	
2.5705	-0.0894165	0.000457764	
2.57507	-0.0897217	0.000305176	
2.5766	-0.0897217	0	
2.57965	-0.0900269	0.000762939	
2.58423	-0.090332	0.000915527	
2.58606	-0.0897217	0.000610352	
2.58942	-0.0900269	0	
2.59399	-0.0900269	0.000762939	
2.59583	-0.0894165	0.000457764	
2.59949	-0.0897217	0.000610352	
2.60437	-0.0906372	0.000610352	
2.60834	-0.0897217	0	
2.61108	-0.0894165	0	
2.61505	-0.0900269	0.000457764	
2.61871	-0.0900269	0.000610352	
2.62054	-0.090332	0.000610352	
2.62421	-0.090332	0.000152588	
2.62878	-0.0894165	0.00137329	
2.63062	-0.0894165	0.000305176	
2.63428	-0.0897217	0.000457764	
2.63855	-0.0894165	0.000457764	
2.64069	-0.0894165	0.000457764	
2.64404	-0.0897217	0.000305176	
2.64801	-0.090332	0.000915527	
2.6535	-0.0894165	0.000305176	
2.65503	-0.0897217	0.000305176	
2.65839	-0.0891113	0	
2.66327	-0.090332	0.000762939	
2.66541	-0.0894165	0.000305176	
2.66876	-0.0900269	0.000305176	
2.67303	-0.0894165	0.000457764	
2.67517	-0.0900269	0.000457764	
2.67792	-0.0897217	0.000152588	
2.6828	-0.0900269	0.000915527	
2.68524	-0.0900269	0.000457764	
2.68921	-0.0897217	0.000305176	
2.69348	-0.0897217	-0.000152588	
2.69806	-0.0897217	0.000610352	
2.69958	-0.0897217	0.000457764	
2.70386	-0.0900269	0.000457764	
2.70752	-0.0894165	0.000610352	
2.70966	-0.0894165	0.000457764	
2.71332	-0.0894165	0	
2.71698	-0.0894165	0.000915527	
2.71973	-0.0894165	0.000610352	
2.72339	-0.0900269	0.000305176	
2.72705	-0.0897217	0	
2.72919	-0.0897217	0.000915527	
2.73285	-0.0894165	0.000610352	
2.73712	-0.0897217	0.000152588	
2.74261	-0.0900269	0.000305176	
2.74384	-0.0888062	0.000305176	
2.7478	-0.0866699	0	
2.75238	-0.0848389	0.000457764	
2.75391	-0.0842285	0.000457764	
2.75665	-0.0845337	0.000610352	
2.76154	-0.0845337	0	
2.76398	-0.0848389	0.000915527	
2.76733	-0.0845337	0.000610352	
2.77161	-0.085144	0.00106812	
2.77405	-0.085144	0.000457764	
2.7771	-0.0845337	0.000915527	
2.78259	-0.0848389	0.000152588	
2.78687	-0.0848389	0.000457764	
2.789	-0.0842285	0	
2.79297	-0.0848389	0.000152588	
2.79663	-0.0848389	0	
2.79846	-0.0845337	0.000915527	
2.80182	-0.0845337	0.000152588	
2.80518	-0.0848389	0.000457764	
2.80853	-0.085144	0.000610352	
2.81128	-0.0848389	0.000762939	
2.81616	-0.085144	0.000305176	
2.8183	-0.0845337	0.000915527	
2.82166	-0.0845337	0.000305176	
2.82562	-0.0817871	0.000152588	
2.82745	-0.0796509	0	
2.83173	-0.0796509	0.000762939	
2.836	-0.0802612	0.000457764	
2.84027	-0.0796509	0.000610352	
2.84271	-0.0796509	0.000305176	
2.84668	-0.0799561	0.000610352	
2.85034	-0.0799561	0.000152588	
2.85309	-0.0799561	0.000610352	
2.85583	-0.0799561	0.000457764	
2.86041	-0.0802612	0.000457764	
2.86255	-0.0802612	0.000152588	
2.8656	-0.0790405	0.000915527	
2.87048	-0.0765991	0.000762939	
2.87231	-0.0756836	0.000915527	
2.87567	-0.0747681	0	
2.88055	-0.0747681	0.000457764	
2.88483	-0.0750732	0	
2.88727	-0.0750732	0.000457764	
2.89001	-0.0750732	0	
2.8952	-0.0747681	0.000610352	
2.89703	-0.0750732	0	
2.90039	-0.0747681	0.000762939	
2.90466	-0.0717163	0.000762939	
2.9071	-0.0704956	0.000457764	
2.91016	-0.0704956	0.000457764	
2.91534	-0.0698853	0.000305176	
2.91718	-0.0701904	0.000457764	
2.92084	-0.0701904	0.000457764	
2.92511	-0.0698853	0.000305176	
2.92969	-0.0698853	0.000305176	
2.93152	-0.0665283	0	
2.93488	-0.0653076	0.000762939	
2.93976	-0.0653076	0.000457764	
2.94159	-0.0650024	0.000457764	
2.94495	-0.0653076	0.000152588	
2.94952	-0.0656128	0.000305176	
2.95135	-0.0653076	0	
2.95532	-0.0613403	0.000457764	
2.95929	-0.06073	0.000457764	
2.96173	-0.0601196	0.000305176	
2.96417	-0.0604248	0	
2.96906	-0.0604248	0.000915527	
2.9718	-0.0598145	0	
2.97485	-0.0567627	0.000152588	
2.97943	-0.0558472	0.000305176	
2.98401	-0.055542	0.000152588	
2.98584	-0.055542	0.000152588	
2.9895	-0.0552368	0.000457764	
2.99377	-0.0552368	0.000610352	
2.99622	-0.0518799	0.000762939	
2.99927	-0.0509644	0.000152588	
3.00385	-0.0506592	0.00106812	
3.00568	-0.050354	0.000457764	
3.00903	-0.0500488	0.000305176	
3.01331	-0.0473022	0.000152588	
3.01575	-0.0457764	0.000152588	
3.0188	-0.0460815	0.000152588	
3.02307	-0.0457764	0.000457764	
3.02551	-0.045166	0.000152588	
3.02856	-0.0421143	0.000457764	
3.03375	-0.0408936	0.000305176	
3.03802	-0.0408936	0.000915527	
3.03986	-0.0402832	0.000610352	
3.04382	-0.039978	0.000610352	
3.0484	-0.0375366	0.000762939	
3.04993	-0.0363159	0.000305176	
3.05298	-0.0363159	0.000305176	
3.05786	-0.03479	0.000457764	
3.06	-0.0323486	0.000305176	
3.06366	-0.0311279	0.000152588	
3.06763	-0.0302124	0.000305176	
3.07007	-0.0302124	0.00106812	
3.07343	-0.027771	0.000915527	
3.078	-0.0262451	0.000305176	
3.07953	-0.0262451	0.000152588	
3.0835	-0.0253296	0.000610352	
3.08807	-0.0222778	0.000457764	
3.09265	-0.0216675	0.000457764	
3.09509	-0.0213623	0.000457764	
3.09814	-0.0201416	0.000152588	
3.10181	-0.0170898	0	
3.10425	-0.0164795	0.000762939	
3.10791	-0.0158691	0.000152588	
3.11218	-0.0152588	0.000610352	
3.11432	-0.0125122	0.000305176	
3.11768	-0.0115967	0.000152588	
3.12256	-0.0100708	0.000152588	
3.12469	-0.00701904	0.000762939	
3.12744	-0.00610352	0.000610352	
3.13202	-0.00640869	0.000610352	
3.13446	-0.00549316	0.000305176	
3.1369	-0.00244141	0.000915527	
3.14178	-0.0012207	0.000305176	
3.14362	-0.00152588	0.000457764	
3.14789	0.00183105	0.000305176	
3.15308	0.00183105	0	
3.15613	0.00274658	0	
3.15887	0.00396729	0.000457764	
3.16193	0.00640869	0.000305176	
3.1662	0.00762939	0.000305176	
3.16864	0.00946045	0	
3.17169	0.0119019	0.00106812	
3.17596	0.0134277	0.000610352	
3.1778	0.0137329	0.000457764	
3.18146	0.0167847	0	
3.18665	0.0177002	0.000762939	
3.18817	0.0183105	0.000305176	
3.19214	0.0213623	0.000762939	
3.19611	0.0222778	0.000305176	
3.19824	0.0231934	0.000152588	
3.20221	0.0234985	0	
3.20587	0.0268555	0.000762939	
3.20709	0.0274658	0.000305176	
3.21167	0.0280762	0.000457764	
3.21533	0.0314331	0.000457764	
3.21838	0.0320435	0.000915527	
3.22113	0.0335693	0.000610352	
3.22571	0.0363159	0.000915527	
3.22998	0.0375366	0.000152588	
3.23242	0.0378418	0.000305176	
3.23608	0.0411987	0	
3.23944	0.0427246	0.000457764	
3.24249	0.0436401	0.000305176	
3.24585	0.0457764	0	
3.25104	0.0476074	0.000457764	
3.25287	0.0485229	0.000152588	
3.25592	0.0509644	0	
3.2608	0.0512695	0.000610352	
3.26233	0.0527954	0.000762939	
3.26599	0.0558472	0.00106812	
3.27057	0.0579834	0.000305176	
3.27209	0.0613403	0.00106812	
3.27576	0.0619507	0.000152588	
3.28033	0.0628662	0.000457764	
3.28247	0.065918	0.000305176	
3.28552	0.0671387	0	
3.28949	0.0668335	0	
3.29224	0.0714111	0.000457764	
3.29529	0.0723267	0.000457764	
3.29956	0.0735474	0	
3.302	0.0756836	0	
3.30505	0.0765991	0.000915527	
3.30933	0.078125	0.000915527	
3.31146	0.0802612	0.000610352	
3.31512	0.0811768	0.000305176	
3.3197	0.0817871	0.000457764	
3.32458	0.085144	0.000152588	
3.32611	0.0863647	0.000457764	
3.32947	0.0863647	0	
3.33405	0.0900269	0.000152588	
3.33618	0.0906372	-0.000152588	
3.33984	0.0915527	0.000762939	
3.34381	0.0946045	0.000457764	
3.34595	0.0961304	0.000457764	
3.34961	0.0967407	0.000457764	
3.35449	0.0994873	0.000762939	
3.35693	0.100708	0.000305176	
3.35968	0.10437	0.000610352	
3.36365	0.105896	0.000305176	
3.36548	0.106506	0.000457764	
3.36945	0.108643	0.000152588	
3.37311	0.110168	0.000762939	
3.37555	0.111084	0.000305176	
3.37891	0.113831	0.000305176	
3.38348	0.115967	0	
3.38562	0.116272	0.000305176	
3.38928	0.119324	0.000305176	
3.39264	0.120239	0.000762939	
3.39508	0.121155	0.000762939	
3.39935	0.124207	0.000610352	
3.40363	0.125427	0.000457764	
3.40576	0.126343	0.000915527	
3.40912	0.129089	0.000610352	
3.41309	0.13031	0.000305176	
3.41583	0.131226	0.000152588	
3.41919	0.133362	0.000305176	
3.42346	0.134583	0.000152588	
3.42529	0.135803	0.000915527	
3.42834	0.13916	0.000152588	
3.43323	0.139771	0.000305176	
3.43536	0.140686	0.000305176	
3.43842	0.144043	0.000915527	
3.44269	0.144958	0.000610352	
3.44452	0.144653	0.000457764	
3.44849	0.145874	0.000610352	
3.45337	0.148621	0.000305176	
3.45459	0.150452	0	
3.45795	0.150452	0.000610352	
3.46313	0.153809	0.000152588	
3.46466	0.154419	0	
3.46802	0.154724	0	
3.47229	0.158691	0.000610352	
3.47443	0.158997	0.000305176	
3.47748	0.160217	0.000305176	
3.48236	0.163269	0.000457764	
3.48511	0.16449	0.00106812	
3.48755	0.16449	0.000152588	
3.49274	0.164795	0.000762939	
3.49518	0.168152	0.000610352	
3.49731	0.169373	0.000457764	
3.5025	0.170288	-0.000152588	
3.50464	0.173035	0.000457764	
3.50739	0.174255	0.000457764	
3.51196	0.17395	0.000305176	
3.51379	0.174561	0.000305176	
3.51715	0.178223	0.000305176	
3.52142	0.179138	0.000152588	
3.52356	0.179443	0.000762939	
3.52753	0.183105	0.000762939	
3.5321	0.183716	0.000610352	
3.53363	0.184021	0	
3.53729	0.184937	0.000915527	
3.54156	0.187683	0.000762939	
3.5437	0.188599	0.000457764	
3.54706	0.189209	0.000152588	
3.55164	0.189514	0	
3.55286	0.192566	-0.000152588	
3.55713	0.194092	0.000762939	
3.56171	0.193787	0.000457764	
3.56354	0.195313	0.000152588	
3.56689	0.196838	0.000152588	
3.57056	0.198669	0.000915527	
3.57269	0.198364	0.000762939	
3.57697	0.19989	0.000457764	
3.58154	0.202637	0.000457764	
3.58276	0.203857	0.000610352	
3.58673	0.203857	0.000457764	
3.5907	0.204468	0.000305176	
3.59314	0.20752	0.000152588	
3.59528	0.208435	0.000152588	
3.59772	0.208435	0.000152588	
3.60077	0.208435	0.000610352	
3.60504	0.209351	0.000305176	
3.60748	0.211792	0.000457764	
3.61145	0.213928	0.000457764	
3.61542	0.213318	0.00106812	
3.61755	0.213318	0.000457764	
3.62152	0.215149	0.000762939	
3.62579	0.21698	0.000610352	
3.62823	0.218506	0.000305176	
3.63129	0.218201	0.000152588	
3.63495	0.218506	0.000457764	
3.63739	0.218811	0.000152588	
3.64044	0.221558	0.000610352	
3.64532	0.223694	0.000305176	
3.64746	0.223694	0.000305176	
3.65082	0.223694	0.000305176	
3.65509	0.223389	0.000610352	
3.65723	0.223694	0.000457764	
3.66028	0.227356	0.000457764	
3.66577	0.227966	0	
3.66699	0.228577	0.0012207	
3.67096	0.228577	0.000457764	
3.67401	0.227966	0.000457764	
3.67676	0.229187	0.000305176	
3.6795	0.231628	0.000305176	
3.68195	0.233154	0.000305176	
3.6853	0.232849	0.000610352	
3.68927	0.233154	0.000457764	
3.69141	0.232849	0.000457764	
3.69476	0.232544	-0.000152588	
3.69995	0.233765	0.000762939	
3.70209	0.237122	0.000610352	
3.70544	0.238037	0.000457764	
3.70911	0.238647	0.000915527	
3.71155	0.238037	0.000457764	
3.7146	0.238342	0	
3.71887	0.238037	0.000762939	
3.72131	0.238037	0.000152588	
3.72498	0.238342	0.000457764	
3.72894	0.241699	0.000305176	
3.73077	0.243225	0.000610352	
3.73413	0.24292	0.000152588	
3.73871	0.24292	0.000305176	
3.74115	0.243225	0.000610352	
3.7442	0.243225	0.000762939	
3.74542	0.24292	0.000457764	
3.74939	0.24292	0.000762939	
3.75366	0.242615	0.000457764	
3.75549	0.24353	0.000305176	
3.75977	0.246582	0	
3.76343	0.247498	0.000457764	
3.76617	0.248108	0.000457764	
3.76892	0.247803	0.000305176	
3.77319	0.248108	0.000152588	
3.77563	0.247803	0.000457764	
3.77991	0.247803	0.000152588	
3.78326	0.248108	0.000610352	
3.7854	0.248413	0.000457764	
3.78906	0.247803	0.000610352	
3.79028	0.247192	0	
3.79364	0.247498	0.00106812	
3.79791	0.247803	0.000762939	
3.80005	0.248413	0.000762939	
3.80402	0.247498	0.000305176	
3.80768	0.248718	-0.000152588	
3.81012	0.251465	0	
3.81348	0.252075	0.000610352	
3.81744	0.25238	0.000457764	
3.8205	0.25238	0.000457764	
3.82324	0.252686	-0.000152588	
3.8269	0.253296	0.000762939	
3.82965	0.25238	0.000610352	
3.83179	0.252686	0.000457764	
3.83453	0.252991	0.000305176	
3.83759	0.252991	0.000610352	
3.84216	0.252686	0	
3.84399	0.252991	0.000915527	
3.84857	0.252686	0.000152588	
3.85254	0.253601	0.000305176	
3.85406	0.25238	0.000305176	
3.85864	0.25238	0.000457764	
3.86139	0.252686	0.000152588	
3.86444	0.253296	0.000610352	
3.86749	0.25238	0.000610352	
3.86932	0.252686	0.000610352	
3.87299	0.252686	0.000152588	
3.87726	0.252686	0.000762939	
3.87878	0.252991	0.000457764	
3.88214	0.25238	0.000152588	
3.88641	0.252991	0.000152588	
3.88855	0.253296	0.000457764	
3.89252	0.252686	0.000457764	
3.89648	0.252686	0.000152588	
3.89862	0.25238	0.000457764	
3.90167	0.25238	0.000305176	
3.9035	0.252686	0	
3.90686	0.252991	0.000610352	
3.91174	0.252991	0.000610352	
3.91357	0.25177	0.000457764	
3.91693	0.25238	0	
3.9212	0.252075	0.000762939	
3.92303	0.249023	0.000915527	
3.92609	0.248413	0.000610352	
3.93158	0.248108	0.000457764	
3.93311	0.247803	-0.000152588	
3.93646	0.247498	-0.000152588	
3.9386	0.247498	0.000305176	
3.94135	0.248413	0.000152588	
3.94653	0.247498	0.000305176	
3.94775	0.248108	-0.000152588	
3.95233	0.247803	0.00137329	
3.9563	0.247498	0.000457764	
3.95752	0.248413	0.000610352	
3.96118	0.247498	0.000305176	
3.96606	0.248413	0.000457764	
3.9679	0.247803	0	
3.97125	0.248108	0.000610352	
3.97247	0.247192	0.000152588	
3.97644	0.244141	0.000152588	
3.98041	0.243225	-0.000152588	
3.98285	0.243225	0.000915527	
3.9859	0.243225	0.000305176	
3.99017	0.24292	0.000457764	
3.99261	0.24292	0.000610352	
3.99536	0.24292	0.000457764	
3.9975	0.242615	0.000152588	
4.00055	0.242615	0.00106812	
4.00543	0.24353	0.000457764	
4.00726	0.242615	0.000762939	
4.01062	0.242004	0.000305176	
4.0152	0.239563	0.000610352	
4.01672	0.238342	0.000305176	
4.02008	0.238342	0.000457764	
4.0213	0.238037	0	
4.02557	0.237732	0.000457764	
4.03076	0.237427	0.000305176	
4.03168	0.238342	0.000610352	
4.03473	0.238037	0.000610352	
4.04022	0.237122	0.000457764	
4.04175	0.23468	0.000152588	
4.04541	0.233459	0.000610352	
4.04694	0.233459	0.000457764	
4.0506	0.233154	0.000305176	
4.05396	0.233765	0.000457764	
4.0564	0.233154	-0.000152588	
4.06006	0.233765	0	
4.06464	0.233459	0.000915527	
4.06647	0.232239	0.000305176	
4.06921	0.229187	0.000762939	
4.07104	0.228577	0	
4.0744	0.227966	0.000915527	
4.07867	0.227661	0.000610352	
4.08112	0.228882	0.000305176	
4.08447	0.227966	0.000457764	
4.08905	0.228882	0.000610352	
4.0918	0.22644	0.000305176	
4.09485	0.22522	0.000610352	
4.09668	0.224304	0.000152588	
4.09943	0.223083	0.000152588	
4.10339	0.223999	0.000152588	
4.10583	0.223083	0.000915527	
4.10889	0.223083	0.000305176	
4.11072	0.222778	0.000457764	
4.11407	0.219421	0.000915527	
4.11865	0.218506	0.000610352	
4.12079	0.218201	0.000457764	
4.12445	0.218506	0.000457764	
4.12903	0.218201	0.000610352	
4.13116	0.217285	0.000305176	
4.13361	0.214844	0.000152588	
4.13605	0.213928	0.000457764	
4.1394	0.213623	0.000457764	
4.14307	0.213928	0.000305176	
4.1452	0.213318	0.000457764	
4.14856	0.213013	0.000152588	
4.15314	0.213623	0.000152588	
4.15466	0.209351	0.000457764	
4.15833	0.209656	0.000457764	
4.15985	0.208435	0.000610352	
4.16351	0.208435	0.000610352	
4.16779	0.208435	0.000915527	
4.16992	0.207825	0.000305176	
4.17328	0.205383	0.000915527	
4.17542	0.203857	0.000610352	
4.17908	0.203857	0	
4.18335	0.203247	-0.000152588	
4.18488	0.203247	0.000457764	
4.18793	0.203552	0.000457764	
4.19006	0.2005	0.000610352	
4.1925	0.19928	-0.000152588	
4.19739	0.198975	0.000762939	
4.19983	0.19928	0.000610352	
4.20319	0.198669	0.000457764	
4.20776	0.196228	0.000762939	
4.20929	0.195007	0.000457764	
4.21295	0.193481	0.000305176	
4.21509	0.194397	0.000762939	
4.21753	0.193481	-0.000152588	
4.22241	0.193176	0	
4.22424	0.19043	0.000152588	
4.22729	0.189209	0.000915527	
4.22913	0.188904	0	
4.2334	0.188293	0.000915527	
4.23615	0.188599	0.000457764	
4.23859	0.185852	0.000610352	
4.24225	0.183411	0.000305176	
4.24408	0.184021	0.000305176	
4.24744	0.184326	0.000305176	
4.25201	0.183105	0.000610352	
4.25385	0.177612	0.000152588	
4.2572	0.174255	0.000457764	
4.25873	0.170898	0.000152588	
4.2627	0.168762	0.000305176	
4.26636	0.169678	0	
4.26849	0.169067	0.000457764	
4.27246	0.169067	0.000305176	
4.27399	0.166016	0.000457764	
4.27734	0.164795	0.000457764	
4.28162	0.164795	0.000762939	
4.28375	0.164795	0.000152588	
4.28711	0.163879	0.000762939	
4.28833	0.161133	0.000305176	
4.29108	0.159607	0.000457764	
4.29657	0.159302	0.000305176	
4.2984	0.158997	0	
4.30176	0.158386	0	
4.30328	0.15564	0.000457764	
4.30603	0.155029	0.000305176	
4.31091	0.154724	0.000305176	
4.31366	0.154419	-0.000152588	
4.31641	0.153809	0.00106812	
4.31763	0.151672	0.000915527	
4.32159	0.149841	0.000457764	
4.32617	0.149536	0.000305176	
4.32739	0.149536	0.000457764	
4.33105	0.149841	0.000457764	
4.33289	0.145874	0.000305176	
4.33594	0.144958	0	
4.34021	0.144958	0.000915527	
4.34296	0.144348	0	
4.34631	0.141907	0.000305176	
4.34784	0.140076	0.000152588	
4.35059	0.140381	0.000305176	
4.35486	0.140381	0.000762939	
4.3573	0.139465	0.000610352	
4.36096	0.136719	0.000457764	
4.36218	0.135498	0.000457764	
4.36584	0.135498	0.000305176	
4.36737	0.135498	0.000457764	
4.37103	0.134888	-0.000152588	
4.37531	0.132141	0.000610352	
4.37714	0.130615	0.000305176	
4.38019	0.130005	0.000305176	
4.38141	0.13031	0.000305176	
4.38538	0.130005	0.000305176	
4.38995	0.126038	0.000457764	
4.3924	0.125732	0.000457764	
4.39545	0.125427	0.000610352	
4.39697	0.125122	0.0012207	
4.40002	0.121765	0.000610352	
4.40491	0.12085	0.000762939	
4.40704	0.120544	0.000610352	
4.4101	0.120544	0.000305176	
4.41162	0.119629	0.000152588	
4.41498	0.116882	0.000305176	
4.41681	0.115356	0.000457764	
4.42047	0.114746	0.000305176	
4.42474	0.115662	0	
4.42657	0.115051	0.000762939	
4.42993	0.115051	0.000152588	
4.43176	0.115662	0.000762939	
4.43573	0.115356	0.000457764	
4.43939	0.115662	0.000915527	
4.44122	0.115051	0	
4.44427	0.115356	0.000457764	
4.44641	0.115051	0.000915527	
4.45038	0.111694	0.000305176	
4.45129	0.111084	0.000152588	
4.45465	0.110474	0.000152588	
4.45831	0.109863	0.000152588	
4.46045	0.107727	0.00106812	
4.46442	0.106201	0.000305176	
4.46564	0.105591	0.000305176	
4.4696	0.105591	0.000610352	
4.47144	0.105286	0.000305176	
4.47388	0.101929	0.000915527	
4.47906	0.100708	0.000457764	
4.48151	0.101013	0.000610352	
4.48395	0.101013	0.000457764	
4.48517	0.100098	0	
4.48944	0.0976563	0.000610352	
4.49066	0.0961304	0.000305176	
4.49432	0.0958252	0.000610352	
4.4986	0.0958252	0.000457764	
4.49951	0.0952148	-0.000152588	
4.50317	0.0927734	0.000457764	
4.50562	0.0909424	0.000457764	
4.50867	0.0906372	0.000305176	
4.50989	0.0915527	0.000305176	
4.51385	0.0906372	0.000152588	
4.51813	0.0878906	0.000762939	
4.52087	0.0866699	0.000457764	
4.52423	0.0860596	0.000152588	
4.52484	0.0863647	0.000305176	
4.5282	0.0848389	-0.000152588	
4.53003	0.0830078	0.000457764	
4.53369	0.0817871	0.000457764	
4.53735	0.0808716	0.000305176	
4.53949	0.0814819	0.000457764	
4.54285	0.0802612	0.000152588	
4.54498	0.0778198	0.0012207	
4.54834	0.0775146	0.000762939	
4.54956	0.0775146	0.000457764	
4.55322	0.0765991	0.000457764	
4.5578	0.0762939	0.000305176	
4.55994	0.0738525	0.000610352	
4.5636	0.0720215	0.000152588	
4.56451	0.0720215	0	
4.56818	0.0717163	0.000152588	
4.57031	0.071106	0	
4.57275	0.0689697	0.000610352	
4.57428	0.0671387	0.000457764	
4.57764	0.0674438	0.000305176	
4.58282	0.0668335	0.000305176	
4.58374	0.0674438	0.000457764	
4.5871	0.0671387	0.000762939	
4.58984	0.0640869	0.000305176	
4.59198	0.0619507	0.000305176	
4.59442	0.0616455	0.000152588	
4.59747	0.0619507	0	
4.59961	0.0616455	0.000305176	
4.60205	0.0585938	0.000457764	
4.60754	0.0579834	0.000305176	
4.60938	0.0570679	0.000152588	
4.61212	0.0576782	0	
4.61365	0.0579834	0.000915527	
4.617	0.0567627	0.000457764	
4.61823	0.0537109	0.000915527	
4.62189	0.0518799	0.000305176	
4.62372	0.0518799	0.000305176	
4.62738	0.0524902	0.000762939	
4.63104	0.0527954	0.000457764	
4.63348	0.0518799	0.000457764	
4.63745	0.0488281	0.000305176	
4.63806	0.0476074	-0.000152588	
4.64172	0.0482178	0.000762939	
4.64355	0.0476074	0.000305176	
4.64661	0.0473022	0.000305176	
4.64874	0.0469971	0.000305176	
4.6521	0.0442505	0	
4.65302	0.0430298	0.000915527	
4.65668	0.0427246	0.000457764	
4.66095	0.0421143	0.000762939	
4.66339	0.0424194	0.000152588	
4.66614	0.0424194	0.000152588	
4.66858	0.0387573	0.000305176	
4.67072	0.0378418	0.000457764	
4.67316	0.0372314	0.000305176	
4.67651	0.0372314	0	
4.67865	0.0372314	0	
4.68048	0.0378418	0.000915527	
4.68231	0.0366211	0.000457764	
4.68628	0.0332642	0.000610352	
4.69177	0.0332642	0.000457764	
4.6933	0.0320435	0.000457764	
4.69604	0.0323486	0.000762939	
4.69818	0.0323486	0.000610352	
4.70093	0.0320435	0.000305176	
4.70276	0.0317383	0.000305176	
4.70581	0.0296021	-0.000152588	
4.70795	0.0280762	0.000915527	
4.71039	0.027771	0.000610352	
4.71252	0.027771	0.000457764	
4.71588	0.027771	0.000457764	
4.71985	0.0274658	-0.000152588	
4.7226	0.0268555	0.000305176	
4.72504	0.0247192	0.000457764	
4.72748	0.0234985	0.000762939	
4.73022	0.0228882	0.000762939	
4.73236	0.022583	0.000152588	
4.73541	0.022583	0.00106812	
4.73724	0.0222778	0.000305176	
4.73999	0.0231934	0.000305176	
4.74243	0.0219727	0.000305176	
4.74548	0.0189209	-0.000152588	
4.74701	0.0177002	0.000457764	
4.75006	0.0180054	0.000610352	
4.75281	0.0177002	0.000457764	
4.75586	0.0180054	0.000610352	
4.75983	0.0180054	0	
4.76166	0.017395	0.000762939	
4.76501	0.0183105	0.000457764	
4.76685	0.0183105	0.000610352	
4.76929	0.0149536	0.000457764	
4.77234	0.0128174	0.000305176	
4.7757	0.0131226	0.000610352	
4.77631	0.0131226	0.000152588	
4.77966	0.0137329	0.000152588	
4.7821	0.0131226	0.000457764	
4.78455	0.0131226	0.000305176	
4.78699	0.0131226	0.000457764	
4.79034	0.012207	0.000305176	
4.79095	0.0088501	0.000610352	
4.79462	0.00793457	0.000152588	
4.79675	0.00793457	0.000457764	
4.7998	0.00793457	0.000762939	
4.80164	0.00823975	0.000610352	
4.80499	0.00762939	0.000457764	
4.80896	0.00854492	0.000457764	
4.8114	0.00762939	0.000152588	
4.81415	0.00793457	0.000457764	
4.81598	0.00732422	0	
4.81873	0.0088501	0.000305176	
4.82178	0.00762939	0.000457764	
4.82422	0.00396729	0	
4.82605	0.00366211	0.000610352	
4.82941	0.00335693	0.000457764	
4.83154	0.00396729	0.000457764	
4.83459	0.00366211	0.000152588	
4.83612	0.00305176	-0.000152588	
4.83917	0.00335693	0.000762939	
4.84131	0.00335693	0.000762939	
4.84375	0.00335693	0.000305176	
4.84589	0.00305176	0.000305176	
4.84894	0.00366211	0	
4.85046	0.00366211	0	
4.85443	0.00335693	0.000457764	
4.85596	0.00213623	0.000305176	
4.85779	-0.000305176	0.000457764	
4.86115	-0.00152588	0.000152588	
4.8642	-0.0012207	0.00106812	
4.86481	-0.00152588	0.000610352	
4.86847	-0.00152588	0.000610352	
4.86969	-0.0012207	0.000305176	
4.87366	-0.00213623	0.000457764	
4.8764	-0.00152588	0.000610352	
4.87885	-0.00152588	0.000152588	
4.88037	-0.00152588	0	
4.88342	-0.0012207	0.000305176	
4.88495	-0.0012207	0.000152588	
4.88861	-0.000610352	0.000610352	
4.89044	-0.0012207	0.000610352	
4.8938	-0.000915527	0.000457764	
4.89532	-0.00152588	0.000305176	
4.89838	-0.00183105	0.000305176	
4.90021	-0.0012207	0.000915527	
4.90265	-0.000610352	0.000457764	
4.90479	-0.00213623	0.000457764	
4.90845	-0.00457764	0.000305176	
4.91028	-0.00610352	-0.000152588	
4.91364	-0.00579834	0.000610352	
4.91516	-0.00640869	-0.000152588	
4.91791	-0.00671387	0.000305176	
4.91974	-0.00610352	0.000457764	
4.9231	-0.00640869	0.000152588	
4.92432	-0.00610352	0.000457764	
4.92767	-0.00610352	0.000457764	
4.9295	-0.00701904	0.000457764	
4.93256	-0.00671387	0.000457764	
4.93378	-0.00671387	0.000152588	
4.93774	-0.00610352	0.000762939	
4.93988	-0.00671387	0.000305176	
4.94324	-0.00610352	0.000457764	
4.94446	-0.00610352	0.000152588	
4.94781	-0.00671387	-0.000152588	
4.94934	-0.00640869	0.000305176	
4.9527	-0.00610352	0.000457764	
4.95422	-0.00671387	0.000305176	
4.95758	-0.00640869	0.000457764	
4.95941	-0.00579834	-0.000152588	
4.96277	-0.00579834	0.000762939	
4.96368	-0.00671387	0.000152588	
4.96765	-0.00640869	0.000457764	
4.96887	-0.00671387	0.000457764	
4.97223	-0.00640869	0	
4.97437	-0.00610352	0.000610352	
4.97711	-0.00701904	0.000152588	
4.97894	-0.00640869	0.000457764	
4.9823	-0.00610352	0.000152588	
4.98352	-0.00640869	0	
4.98688	-0.00610352	0.000610352	
4.98901	-0.00610352	0.000457764	
4.99176	-0.00640869	0.000457764	
4.99359	-0.00610352	0.000305176	
4.99664	-0.00640869	0.000305176	
4.99878	-0.00610352	0.000457764	
5.00183	-0.00640869	0.000305176	
5.00397	-0.00671387	0.000305176	
5.0061	-0.00671387	0.000305176	
5.00854	-0.00610352	0	
5.01221	-0.00549316	0.000305176	
5.01312	-0.00610352	0.000457764	
5.01709	-0.00671387	0.000305176	
5.01831	-0.00610352	0.000305176	
5.02106	-0.00579834	-0.000152588	
5.02319	-0.00671387	0.000915527	
5.0235	-0.00701904	0.000457764	
5.02625	-0.00610352	0.0012207	
5.02808	-0.00610352	0.000305176	
5.03174	-0.00579834	0.000152588	
5.03326	-0.00579834	0.000610352	
5.03571	-0.00640869	0.000305176	
5.03754	-0.00579834	0.000610352	
5.04089	-0.00640869	0.000305176	
5.04303	-0.00640869	-0.000152588	
5.04608	-0.00640869	0.000457764	
5.04791	-0.00640869	0.000457764	
5.05127	-0.00610352	0.000305176	
5.05371	-0.00579834	0.000305176	
5.05615	-0.00640869	-0.000152588	
5.05737	-0.00640869	0.000915527	
5.06165	-0.00579834	0.000610352	
5.06287	-0.00610352	0.000457764	
5.06531	-0.00640869	0.000457764	
5.06744	-0.00701904	0.000152588	
5.06836	-0.00640869	0.000457764	
5.07111	-0.00640869	0.000457764	
5.07263	-0.00701904	-0.000152588	
5.07629	-0.00640869	0.000152588	
5.0769	-0.00610352	0	
5.07965	-0.00610352	0.000610352	
5.08179	-0.00640869	0.000457764	
5.08545	-0.00610352	0.000152588	
5.08667	-0.00640869	0.000610352	
5.08972	-0.00640869	0.000457764	
5.09155	-0.00671387	0.000762939	
5.0943	-0.00610352	0.000305176	
5.09613	-0.00579834	0.000152588	
5.1001	-0.00640869	0.000305176	
5.10132	-0.00305176	-0.000152588	
5.10223	-0.00183105	0.000610352	
5.10498	-0.000915527	0.000305176	
5.1062	-0.00213623	0.000457764	
5.11017	-0.0012207	0.000305176	
5.11139	-0.00152588	0	
5.11505	-0.0012207	0.000457764	
5.11688	-0.0012207	0.000457764	
5.11993	-0.00183105	0.000610352	
5.12146	-0.00152588	0.000762939	
5.12482	-0.00152588	0.000152588	
5.12573	-0.00152588	0.000915527	
5.12634	-0.0012207	0.000457764	
5.13	-0.00183105	0.000305176	
5.13123	-0.0012207	0	
5.13428	-0.00183105	0	
5.13672	-0.00183105	0.000305176	
5.13885	-0.0012207	0.000762939	
5.14069	-0.00152588	0.000457764	
5.14404	-0.00183105	0.000305176	
5.14526	-0.0012207	0	
5.14923	-0.000915527	0.000915527	
5.15076	-0.00183105	0.000457764	
5.15106	-0.0012207	0.000457764	
5.15442	-0.0012207	0.000152588	
5.15533	-0.00152588	0.000305176	
5.159	-0.00152588	0.000915527	
5.16174	-0.00152588	0.000305176	
5.16357	-0.000610352	0.000457764	
5.16541	0.00213623	0.000457764	
5.16876	0.00366211	0.000152588	
5.1709	0.00305176	0.000762939	
5.17181	0.00366211	0.000457764	
5.17365	0.00274658	0.000457764	
5.17578	0.00335693	0.000305176	
5.17853	0.00335693	0.000457764	
5.18036	0.00274658	0.000762939	
5.18402	0.00366211	0.000305176	
5.18616	0.00274658	0.000457764	
5.1886	0.00274658	0.000152588	
5.18951	0.00274658	-0.000152588	
5.19073	0.00335693	0.000457764	
5.1944	0.00335693	0.000457764	
5.19531	0.00335693	0.000305176	
5.19867	0.00305176	0.000152588	
5.2002	0.00305176	0.000152588	
5.20355	0.00274658	0.000610352	
5.20569	0.00305176	0.000305176	
5.20874	0.00366211	0.000610352	
5.20966	0.00366211	0.000762939	
5.21027	0.00335693	0.000152588	
5.21362	0.00305176	0.000762939	
5.21515	0.00396729	0.000305176	
5.21851	0.00366211	0.000762939	
5.22064	0.00427246	0.000457764	
5.22308	0.00671387	0	
5.2243	0.00823975	0.000610352	
5.22522	0.00732422	0.000457764	
5.22766	0.00854492	0.000305176	
5.22949	0.00823975	0.000457764	
5.23315	0.00762939	-0.000152588	
5.23529	0.00823975	0.000762939	
5.23743	0.00823975	0.000457764	
5.23926	0.00823975	0.000305176	
5.23987	0.00793457	0.000610352	
5.24323	0.00762939	0.000152588	
5.24475	0.00823975	0.000610352	
5.24719	0.00854492	0	
5.24963	0.00823975	0.000305176	
5.25238	0.00793457	0.000305176	
5.25482	0.00793457	0	
5.25482	0.00793457	0.000915527	
5.25726	0.00762939	0.000610352	
5.25909	0.00823975	0.000610352	
5.26306	0.00823975	0.000610352	
5.26398	0.00793457	0.000457764	
5.26489	0.00854492	0.000915527	
5.26733	0.00762939	0.000305176	
5.26947	0.00793457	0.000152588	
5.27222	0.00823975	0.000305176	
5.27405	0.0088501	0	
5.27771	0.012207	0.000457764	
5.27954	0.0128174	-0.000152588	
5.27954	0.0131226	0.000152588	
5.28259	0.0131226	0.000305176	
5.28412	0.0134277	0	
5.28778	0.0134277	0.000762939	
5.2887	0.0131226	0.000305176	
5.289	0.0131226	0.000305176	
5.29297	0.0128174	0.000610352	
5.29449	0.0128174	0.000305176	
5.29694	0.0134277	0.000457764	
5.29846	0.0131226	0.000610352	
5.30273	0.0134277	0.000152588	
5.30365	0.0131226	0.000457764	
5.30396	0.0131226	-0.000152588	
5.3067	0.0131226	0.000305176	
5.30945	0.0128174	0.000610352	
5.31128	0.0125122	0.000457764	
5.31403	0.0125122	0.000457764	
5.31403	0.0134277	0.000152588	
5.31647	0.0137329	0.000457764	
5.3183	0.0134277	0.000457764	
5.32166	0.0125122	0.000457764	
5.32318	0.0131226	0.000457764	
5.3244	0.0140381	-0.000152588	
5.32715	0.0134277	0.000915527	
5.32867	0.0128174	0.000152588	
5.33142	0.0125122	0	
5.33325	0.0131226	0.000457764	
5.33325	0.0134277	0	
5.33661	0.0131226	0.000305176	
5.33813	0.0131226	0.000610352	
5.34119	0.0128174	0.000152588	
5.34302	0.0134277	0	
5.34363	0.0128174	0.000305176	
5.34607	0.0131226	0.000610352	
5.34882	0.0131226	0.000152588	
5.35156	0.0134277	0.000457764	
5.35248	0.0134277	0.000457764	
5.35339	0.0164795	-0.000152588	
5.35645	0.0180054	0.000610352	
5.35797	0.0189209	0.000152588	
5.36194	0.0183105	0.000305176	
5.36316	0.0177002	0.000457764	
5.36316	0.0183105	0	
5.36621	0.0177002	0.000457764	
5.36774	0.0183105	0.000457764	
5.3714	0.0189209	0.000457764	
5.37262	0.0180054	0.000305176	
5.37323	0.0180054	0	
5.37567	0.0183105	0.000915527	
5.37811	0.0177002	0.000457764	
5.38086	0.0183105	0.000457764	
5.38269	0.0183105	0.000152588	
5.38239	0.0180054	-0.000152588	
5.38635	0.0180054	0.000610352	
5.38666	0.0177002	0.000457764	
5.38849	0.0180054	0.000305176	
5.39063	0.0180054	0.000610352	
5.39246	0.0180054	0.000152588	
5.39581	0.0180054	0.000762939	
5.39703	0.0186157	0.000305176	
5.39764	0.0189209	0.000305176	
5.40039	0.0177002	0.000457764	
5.40253	0.0183105	0.000457764	
5.40558	0.0183105	0.000915527	
5.4068	0.0180054	0.000457764	
5.40771	0.0183105	0.000152588	
5.41077	0.0177002	0	
5.41199	0.0180054	0	
5.4126	0.0180054	0.000610352	
5.41534	0.0177002	0.000457764	
5.41718	0.0183105	0.000305176	
5.42023	0.0180054	0.000610352	
5.42206	0.017395	0.000305176	
5.42236	0.0180054	0.000762939	
5.42603	0.0180054	0.000152588	
5.42725	0.0177002	0.000305176	
5.42755	0.017395	0.000457764	
5.42999	0.0180054	0.000152588	
5.43182	0.0183105	0.000762939	
5.43579	0.0177002	0.000457764	
5.4364	0.0177002	0.000305176	
5.43701	0.0177002	0	
5.44067	0.0177002	-0.000152588	
5.44159	0.0180054	0.000305176	
5.4425	0.0183105	0.000305176	
5.44525	0.017395	0.000762939	
5.44678	0.0177002	0.000457764	
5.45044	0.0183105	0.000152588	
5.45166	0.0189209	0.000762939	
5.45288	0.0186157	0.000610352	
5.45471	0.0183105	0.000305176	
5.45624	0.0180054	0.000457764	
5.45715	0.0183105	0	
5.46051	0.017395	0.000610352	
5.46143	0.0183105	0.000457764	
5.46295	0.0167847	0.000305176	
5.46509	0.0149536	0.000305176	
5.46692	0.0134277	0.000457764	
5.46997	0.0131226	0.000915527	
5.47119	0.0128174	0.000457764	
5.47089	0.0134277	0.000457764	
5.47424	0.0131226	0.000305176	
5.47668	0.0125122	0.000305176	
5.47668	0.0131226	0.000915527	
5.48035	0.012207	0.000305176	
5.48065	0.0128174	0.000152588	
5.48218	0.0128174	0.000610352	
5.48492	0.012207	0.000305176	
5.48645	0.0131226	0.000610352	
5.48615	0.0134277	0.000305176	
5.48981	0.0128174	0.000610352	
5.49164	0.0125122	0.000305176	
5.495	0.0134277	0.000457764	
5.49652	0.0128174	0.000610352	
5.49744	0.0137329	0.000610352	
5.49988	0.0125122	0.000305176	
5.5011	0.0128174	0.000152588	
5.50171	0.0131226	0.000152588	
5.50476	0.0134277	0.000762939	
5.50598	0.0128174	0.000305176	
5.50629	0.0134277	0.000305176	
5.50873	0.0125122	0	
5.51117	0.0125122	0	
5.51178	0.0134277	0.000457764	
5.51483	0.0128174	0	
5.51605	0.0134277	0.000457764	
5.51636	0.0131226	0.000457764	
5.5188	0.0131226	0.000305176	
5.52032	0.0128174	0.000915527	
5.52155	0.0125122	0.000610352	
5.52368	0.0131226	0.000762939	
5.52612	0.0125122	0.000457764	
5.52917	0.00854492	-0.000152588	
5.5304	0.00793457	0.000152588	
5.53162	0.00854492	0.000305176	
5.53375	0.00823975	0.000610352	
5.53558	0.00762939	0.000457764	
5.53619	0.00793457	0	
5.53802	0.00823975	0.000610352	
5.54047	0.00854492	0.000762939	
5.54108	0.00854492	0.000762939	
5.54382	0.00793457	0.000305176	
5.54504	0.00793457	0.000305176	
5.54596	0.00793457	0.000762939	
5.54901	0.00823975	0.000457764	
5.55054	0.00762939	0.000305176	
5.55023	0.00823975	0.000305176	
5.55328	0.00762939	-0.000152588	
5.55542	0.00823975	0.000305176	
5.55542	0.00793457	0.000152588	
5.55847	0.00762939	0.000152588	
5.56	0.00854492	0.000305176	
5.56061	0.00793457	0.000610352	
5.56305	0.00823975	0.000610352	
5.56458	0.0088501	0.000305176	
5.5658	0.00701904	0.000762939	
5.56854	0.00366211	0.000457764	
5.56946	0.00335693	0	
5.57007	0.00305176	0.000610352	
5.57373	0.00366211	0.000152588	
5.57434	0.00305176	0.000152588	
5.57495	0.00366211	0.000457764	
5.57861	0.00366211	-0.000152588	
5.57922	0.00335693	0.000610352	
5.58044	0.00274658	0.000305176	
5.58289	0.00335693	0.000457764	
5.58441	0.00305176	0.000610352	
5.58594	0.00366211	0.000305176	
5.58838	0.00335693	0.000915527	
5.58899	0.00305176	0.000610352	
5.59082	0.00305176	0.000457764	
5.59296	0.00335693	0.000610352	
5.59448	0.00305176	0.000152588	
5.5954	0.00335693	0.000457764	
5.59509	0.00274658	0.000305176	
5.59845	0.00274658	0.000305176	
5.59967	0.00305176	0.000305176	
5.60028	-0.000915527	0.000457764	
5.60303	-0.0012207	0.000457764	
5.60486	-0.00152588	0.000457764	
5.60486	-0.00183105	0.000610352	
5.60822	-0.00152588	0.000305176	
5.60913	-0.0012207	0.000152588	
5.61005	-0.000915527	0.000610352	
5.61279	-0.00152588	0.000457764	
5.61432	-0.00152588	0.000152588	
5.61554	-0.00152588	0.000152588	
5.61768	-0.00183105	-0.000152588	
5.6192	-0.0012207	0.000610352	
5.62012	-0.00152588	0.000610352	
5.62347	-0.0012207	0.000305176	
5.62378	-0.000915527	0.000610352	
5.625	-0.0012207	0.000762939	
5.62775	-0.0012207	0.000457764	
5.62927	-0.00213623	0.000762939	
5.62988	-0.00457764	0.000305176	
5.62988	-0.00610352	0.000610352	
5.63263	-0.00732422	0.000305176	
5.63354	-0.00610352	0.000610352	
5.63446	-0.00640869	0.000152588	
5.63751	-0.00610352	0.000305176	
5.63873	-0.00640869	0.000152588	
5.64026	-0.00701904	0	
5.64178	-0.00579834	0.000610352	
5.64453	-0.00610352	0.000305176	
5.64423	-0.00640869	0.000762939	
5.64728	-0.00640869	0.000457764	
5.6485	-0.00610352	0.000152588	
5.6488	-0.00610352	0.000762939	
5.65002	-0.00549316	0.000457764	
5.65247	-0.00640869	0.000305176	
5.6543	-0.00671387	0.000152588	
5.65491	-0.00671387	0	
5.65796	-0.0100708	0.000457764	
5.65918	-0.0106812	0.000305176	
5.65918	-0.0106812	0.000305176	
5.66223	-0.0112915	0.000457764	
5.66437	-0.0112915	0.000305176	
5.66437	-0.0109863	0.000915527	
5.66467	-0.0109863	0.000457764	
5.66742	-0.0119019	0.000762939	
5.66864	-0.0112915	0.000152588	
5.66956	-0.0109863	0.000152588	
5.6723	-0.0112915	0.000915527	
5.67383	-0.0112915	0.000305176	
5.67505	-0.0112915	0	
5.67719	-0.0112915	0.000152588	
5.67871	-0.0109863	-0.000152588	
5.67871	-0.0109863	0.000457764	
5.67963	-0.012207	0.000457764	
5.68115	-0.0143433	0.000305176	
5.68329	-0.015564	0.000305176	
5.6839	-0.0158691	0.000152588	
5.68665	-0.0164795	0.000610352	
5.68787	-0.0161743	0.000305176	
5.68939	-0.0167847	0.000305176	
5.69214	-0.0161743	0.000152588	
5.69275	-0.0158691	0.000305176	
5.69366	-0.0161743	0.000457764	
5.69397	-0.0158691	0.000152588	
5.69702	-0.0158691	0.000610352	
5.69763	-0.0161743	0.000457764	
5.69855	-0.0164795	0.000152588	
5.7016	-0.0161743	0.000457764	
5.70282	-0.0158691	0.000305176	
5.70374	-0.0158691	0.000457764	
5.70374	-0.0170898	0.000610352	
5.70618	-0.0195313	0.000152588	
5.70801	-0.0213623	0.000762939	
5.70862	-0.0213623	0.000305176	
5.71167	-0.0210571	0.000305176	
5.71259	-0.020752	0.000305176	
5.71289	-0.0210571	0	
5.71289	-0.0219727	0.000152588	
5.71625	-0.0210571	0.000152588	
5.71747	-0.0222778	0.000610352	
5.71838	-0.0250244	0.000305176	
5.72144	-0.0259399	0.000152588	
5.72266	-0.0253296	0.000915527	
5.72296	-0.0253296	0.000457764	
5.72357	-0.0259399	0	
5.72601	-0.0262451	0.000610352	
5.72693	-0.0256348	0.000457764	
5.72876	-0.0259399	0.000305176	
5.73151	-0.0265503	0.000305176	
5.73273	-0.0256348	0.000457764	
5.73334	-0.0259399	0.000305176	
5.73334	-0.0265503	0	
5.73578	-0.0259399	0.000610352	
5.73761	-0.0256348	0.000610352	
5.73792	-0.0259399	0.000457764	
5.73853	-0.0253296	0.000457764	
5.74066	-0.0262451	0.000610352	
5.74158	-0.0296021	0.000457764	
5.74249	-0.0308228	0.000305176	
5.74585	-0.0311279	0.000610352	
5.74768	-0.0311279	0.000305176	
5.74738	-0.0311279	0.000152588	
5.74799	-0.0311279	0.000305176	
5.75134	-0.0302124	0.000305176	
5.75256	-0.0311279	0.000457764	
5.75317	-0.0311279	0.000305176	
5.75348	-0.0305176	0.000305176	
5.75592	-0.0311279	0.000610352	
5.75745	-0.0308228	0.000305176	
5.75775	-0.0314331	0.000762939	
5.7605	-0.0308228	0.000305176	
5.76172	-0.0311279	0	
5.76263	-0.0314331	0.000610352	
5.76355	-0.0311279	0.000457764	
5.76508	-0.0314331	0.000457764	
5.76691	-0.0354004	0.000610352	
5.76721	-0.0354004	0.000152588	
5.76813	-0.0360107	0.000305176	
5.77087	-0.0357056	0.000152588	
5.77271	-0.0360107	0.000457764	
5.7724	-0.0357056	0.000762939	
5.77332	-0.0360107	0.000152588	
5.77576	-0.0357056	0.000762939	
5.77698	-0.0360107	0.000457764	
5.77759	-0.0357056	0.000610352	
5.77759	-0.0363159	0.000305176	
5.78125	-0.03479	0.000457764	
5.78125	-0.0357056	0.000610352	
5.78247	-0.0363159	0	
5.78552	-0.0357056	0	
5.78705	-0.0360107	0.000610352	
5.78735	-0.0350952	-0.000152588	
5.78766	-0.0363159	0.000152588	
5.78705	-0.0357056	0.000457764	
5.78705	-0.0357056	0.000152588	
5.78735	-0.0360107	0.000610352	
5.78735	-0.0354004	0.000762939	
5.78705	-0.0357056	0.000457764	
5.78766	-0.0360107	0.000305176	
5.78705	-0.0360107	0.000305176	
5.78674	-0.0363159	0.000305176	
5.78735	-0.0357056	0.000305176	
5.78766	-0.0354004	0.000305176	
5.79681	-0.0360107	0	
5.80139	-0.0357056	0.000457764	
5.80444	-0.039978	0.000305176	
5.80658	-0.0408936	0.000457764	
5.80719	-0.0411987	0.000610352	
5.80719	-0.0418091	0.000610352	
5.81024	-0.0402832	0.000915527	
5.81177	-0.0411987	0.000610352	
5.81177	-0.0405884	0.000152588	
5.81238	-0.0408936	0.000610352	
5.81482	-0.0408936	0	
5.81726	-0.0408936	0.000457764	
5.81665	-0.0405884	0.000457764	
5.81696	-0.0408936	0.000305176	
5.82031	-0.0402832	0.000457764	
5.82153	-0.0402832	0.000305176	
5.82184	-0.0415039	0.000457764	
5.82245	-0.0445557	0.000305176	
5.82489	-0.0454712	0.000152588	
5.82581	-0.0457764	0.00106812	
5.82611	-0.0460815	0.000152588	
5.82733	-0.0454712	0.000915527	
5.82947	-0.0454712	0.000305176	
5.83191	-0.0448608	0.000305176	
5.83191	-0.0454712	0.000457764	
5.83191	-0.0460815	0.000152588	
5.83557	-0.0457764	0.000152588	
5.83588	-0.0454712	0.000152588	
5.83679	-0.0457764	0	
5.83679	-0.045166	0.000457764	
5.84045	-0.0457764	0.000305176	
5.84076	-0.0454712	0.000915527	
5.84167	-0.0457764	0.000610352	
5.84137	-0.0460815	0.000457764	
5.84229	-0.0457764	0.000305176	
5.84412	-0.0454712	0.000457764	
5.84595	-0.0454712	0.000610352	
5.84656	-0.0457764	0	
5.84656	-0.0469971	0.000152588	
5.84991	-0.0491333	0.000305176	
5.85052	-0.050354	-0.000152588	
5.85114	-0.0509644	0.000305176	
5.85205	-0.0512695	0.000305176	
5.8548	-0.0506592	0.000152588	
5.85571	-0.0509644	0.000305176	
5.85602	-0.0500488	0.000457764	
5.85724	-0.0500488	0.000457764	
5.85968	-0.050354	0.000457764	
5.86121	-0.0509644	0.000152588	
5.86121	-0.0497437	0.000762939	
5.8606	-0.0506592	0.000152588	
5.86151	-0.0506592	0.000762939	
5.86426	-0.0500488	0.000305176	
5.86548	-0.0509644	0.000152588	
5.86578	-0.0509644	0.000457764	
5.8667	-0.0509644	0.000610352	
5.86945	-0.0506592	0	
5.87067	-0.0512695	0.000457764	
5.87067	-0.0506592	0	
5.87097	-0.0506592	0.00106812	
5.87097	-0.050354	0.000305176	
5.87341	-0.0506592	0.00106812	
5.87463	-0.050354	0.000915527	
5.87616	-0.0509644	0.000457764	
5.87616	-0.0509644	0.000457764	
5.87921	-0.0537109	0.000305176	
5.88074	-0.055542	0.000305176	
5.88104	-0.0564575	0.000305176	
5.88043	-0.055542	0.000152588	
5.88104	-0.0561523	0.000610352	
5.88379	-0.0549316	0.000305176	
5.88531	-0.0552368	0.000762939	
5.88593	-0.0552368	0.000610352	
5.88593	-0.055542	0.000762939	
5.88898	-0.055542	0.000457764	
5.89081	-0.0558472	0.000152588	
5.8905	-0.055542	0.000457764	
5.8905	-0.0558472	0.000305176	
5.89111	-0.0558472	0	
5.89325	-0.055542	0.000457764	
5.89508	-0.0552368	0.000152588	
5.8963	-0.0552368	0.000152588	
5.89539	-0.0549316	0.000152588	
5.89783	-0.055542	0	
5.90088	-0.055542	0.000305176	
5.90088	-0.055542	0.000762939	
5.89996	-0.0558472	0.000457764	
5.90027	-0.0549316	0.000762939	
5.90363	-0.0561523	-0.000152588	
5.90515	-0.0561523	0.000610352	
5.90546	-0.0558472	0	
5.90546	-0.0552368	0.000305176	
5.90576	-0.0552368	0.000152588	
5.90942	-0.055542	0.000305176	
5.91064	-0.055542	0.000305176	
5.91003	-0.0549316	0.000457764	
5.91125	-0.0561523	0.000305176	
5.9137	-0.0585938	0.000457764	
5.91492	-0.06073	0	
5.91614	-0.0604248	0.0012207	
5.91553	-0.0604248	0.000762939	
5.91522	-0.06073	0.000915527	
5.91858	-0.0598145	0.000305176	
5.91949	-0.0601196	0.00106812	
5.92102	-0.0604248	0.000152588	
5.92041	-0.0601196	0.000457764	
5.92133	-0.0604248	0.000152588	
5.92346	-0.06073	0.000152588	
5.92468	-0.0604248	0	
5.92529	-0.0604248	0.000610352	
5.92651	-0.06073	0.000305176	
5.92499	-0.0598145	0.000457764	
5.92834	-0.0598145	0.000305176	
5.92987	-0.0598145	0.000762939	
5.93048	-0.0604248	0.000610352	
5.93018	-0.0601196	0.000305176	
5.93109	-0.0604248	0.000610352	
5.93353	-0.0610352	0.000457764	
5.93475	-0.0601196	0	
5.93445	-0.0610352	0.000305176	
5.93506	-0.0601196	0.000305176	
5.93567	-0.0601196	0.000152588	
5.93872	-0.0601196	0.000152588	
5.93964	-0.0604248	0.000610352	
5.94025	-0.0604248	0.000457764	
5.94025	-0.0598145	0.000305176	
5.94055	-0.0604248	0.000457764	
5.9433	-0.0598145	0.000457764	
5.94482	-0.06073	0	
5.94513	-0.0598145	0.000915527	
5.94452	-0.06073	0.000457764	
5.94543	-0.0604248	0.000762939	
5.94727	-0.0604248	0.000152588	
5.94971	-0.0610352	0.000305176	
5.94971	-0.0601196	0.000305176	
5.94971	-0.0613403	0.000610352	
5.94971	-0.0640869	0.000457764	
5.95367	-0.0646973	0.000457764	
5.9549	-0.0656128	0.000152588	
5.9549	-0.0653076	0.000762939	
5.9549	-0.0653076	0.000915527	
5.9549	-0.0653076	0.000762939	
5.95459	-0.0650024	0.000152588	
5.95795	-0.0650024	0.000762939	
5.95947	-0.0653076	0.000457764	
5.95947	-0.0646973	0.000152588	
5.96008	-0.065918	0	
5.96008	-0.0656128	0.000152588	
5.96283	-0.0656128	0	
5.96405	-0.0650024	0.000610352	
5.96527	-0.0653076	0.000152588	
5.96497	-0.0643921	0.000152588	
5.96436	-0.0656128	0	
5.96832	-0.0653076	0.00106812	
5.96924	-0.0656128	0.000305176	
5.96985	-0.0656128	0.000305176	
5.96985	-0.0656128	0.000457764	
5.96954	-0.0653076	0.000152588	
5.97015	-0.0656128	0	
5.9729	-0.0653076	0.000610352	
5.97473	-0.0653076	0.000152588	
5.97473	-0.065918	0.000305176	
5.97473	-0.0656128	0.000152588	
5.97473	-0.0653076	0.000152588	
5.97809	-0.0653076	0.000305176	
5.9787	-0.065918	0.000610352	
5.97931	-0.0653076	0.000915527	
5.97931	-0.0650024	0.000457764	
5.97931	-0.0653076	0	
5.97992	-0.0650024	0.000305176	
5.97961	-0.0653076	0.000152588	
5.97931	-0.0650024	0.000152588	
5.97931	-0.0653076	0.000152588	
5.97961	-0.0656128	0.000152588	
5.97961	-0.0653076	0.000305176	
5.979	-0.065918	0.000152588	
5.97961	-0.0656128	0.000305176	
5.97961	-0.0656128	0.000610352	
5.98663	-0.065918	0.000610352	
5.99243	-0.0653076	0.000915527	
5.99457	-0.0656128	0.000610352	
5.99426	-0.0653076	0.000610352	
5.99335	-0.0650024	0.000305176	
5.99426	-0.0656128	0.000305176	
5.99457	-0.0653076	0.000305176	
5.99731	-0.0650024	0.000457764	
5.99884	-0.0656128	-0.000152588	
5.99976	-0.0653076	0.000457764	
5.99884	-0.0653076	-0.000152588	
5.99976	-0.0650024	0.000457764	
5.99976	-0.0646973	0.000305176	
6.0022	-0.0650024	0.000305176	
6.00342	-0.0656128	0.000610352	
6.00433	-0.0646973	0.000305176	
6.00433	-0.0613403	0.000305176	
6.00372	-0.06073	0.000457764	
6.00433	-0.0601196	0.000152588	
6.00769	-0.0601196	0.00106812	
6.00922	-0.0604248	0.000305176	
6.00891	-0.0598145	0.000305176	
6.00891	-0.0604248	0.000152588	
6.00861	-0.0604248	0.000152588	
6.00922	-0.0604248	0.000152588	
6.01166	-0.06073	0.000152588	
6.01379	-0.0598145	0.000305176	
6.0141	-0.0598145	0.000305176	
6.01379	-0.0610352	0.000305176	
6.01379	-0.0601196	0.000610352	
6.0141	-0.0601196	0	
6.01715	-0.0604248	0.000915527	
6.01837	-0.0601196	0.000305176	
6.01868	-0.0601196	0.000610352	
6.01868	-0.0570679	0.000305176	
6.01868	-0.055542	0.000305176	
6.01898	-0.055542	0.000610352	
6.02203	-0.0558472	0.000305176	
6.02325	-0.0564575	0	
6.02295	-0.055542	0.000762939	
6.02386	-0.0552368	0.000305176	
6.02417	-0.0552368	0.000915527	
6.02386	-0.055542	0.000762939	
6.02631	-0.055542	0.000305176	
6.02905	-0.0549316	0.000610352	
6.02844	-0.0515747	0.000457764	
6.02875	-0.0506592	0.000457764	
6.02905	-0.0509644	0.000305176	
6.02844	-0.0506592	-0.000152588	
6.02875	-0.0497437	0.000305176	
6.0318	-0.0506592	0	
6.03333	-0.0509644	0.000610352	
6.03363	-0.0509644	0.000457764	
6.03333	-0.0494385	0.000457764	
6.03333	-0.0469971	0.000305176	
6.03394	-0.0448608	0.000915527	
6.0379	-0.045166	0.000457764	
6.03821	-0.0454712	0.000305176	
6.03882	-0.0466919	0	
6.03851	-0.0457764	0.000610352	
6.03943	-0.045166	0.000152588	
6.03851	-0.0421143	0.000610352	
6.03882	-0.0408936	0	
6.04218	-0.0411987	0.000305176	
6.04309	-0.0408936	0.000457764	
6.0437	-0.0408936	0	
6.04401	-0.0408936	0.000457764	
6.0437	-0.039978	0.000457764	
6.0434	-0.0372314	0.000305176	
6.04431	-0.0354004	0.000762939	
6.04706	-0.0357056	0.000305176	
6.04828	-0.0354004	0.000762939	
6.04828	-0.0360107	0.000610352	
6.04919	-0.0344849	0.000457764	
6.04889	-0.0317383	0.000457764	
6.04919	-0.0317383	0	
6.05225	-0.0311279	0.000305176	
6.05377	-0.0311279	0.000305176	
6.05408	-0.0305176	0.000152588	
6.05347	-0.0274658	0.000610352	
6.05316	-0.0268555	0	
6.05377	-0.0256348	0.000762939	
6.05408	-0.0262451	0.000610352	
6.05591	-0.0253296	0.000457764	
6.05743	-0.0216675	0.000305176	
6.05835	-0.0210571	0.000457764	
6.05804	-0.0210571	0.000305176	
6.05865	-0.0219727	0.000152588	
6.05865	-0.0204468	-0.000152588	
6.05835	-0.0170898	0.000610352	
6.05835	-0.0167847	0	
6.06171	-0.0158691	0.000610352	
6.06293	-0.0152588	0.000457764	
6.06384	-0.0125122	0.000152588	
6.06354	-0.0119019	0.000305176	
6.06384	-0.0109863	0.000457764	
6.06354	-0.0115967	0.000457764	
6.06323	-0.0100708	0.000152588	
6.06689	-0.00701904	0.000152588	
6.0672	-0.00640869	0.000915527	
6.06842	-0.00640869	0	
6.06842	-0.00579834	0.000457764	
6.06842	-0.00274658	0.000305176	
6.06812	-0.00152588	0	
6.06812	-0.000915527	0.000305176	
6.07147	-0.000610352	0.000152588	
6.073	0.00183105	0.000457764	
6.073	0.00305176	0.000457764	
6.073	0.00335693	0.000152588	
6.073	0.00366211	0.000762939	
6.07239	0.00671387	0.000457764	
6.0733	0.00793457	0.000915527	
6.07361	0.00823975	0.000610352	
6.07666	0.00976563	0.000152588	
6.07788	0.0112915	0.000457764	
6.07788	0.0125122	0	
6.07819	0.0131226	0.000457764	
6.0788	0.0164795	0.000610352	
6.07849	0.0180054	-0.000152588	
6.0788	0.0180054	0.000610352	
6.08154	0.0189209	0.000305176	
6.08276	0.0219727	0.000610352	
6.08307	0.0222778	0.000610352	
6.08307	0.022583	0.000305176	
6.08307	0.022583	0.000457764	
6.08276	0.0228882	0.000457764	
6.08307	0.0228882	0.000457764	
6.08337	0.022583	0.000457764	
6.08643	0.0244141	0.000152588	
6.08795	0.0338745	0.000610352	
6.08795	0.0372314	0.000305176	
6.08795	0.0384521	0	
6.08917	0.0411987	0.000457764	
6.08826	0.0421143	0.000457764	
6.08887	0.043335	0.000305176	
6.08856	0.0466919	0.000305176	
6.09161	0.0476074	0.000610352	
6.09314	0.0473022	0	
6.09222	0.0479126	0.000305176	
6.09344	0.0512695	0.000762939	
6.09344	0.0524902	0.000457764	
6.09253	0.0534058	0.000152588	
6.09253	0.055542	0	
6.09406	0.0570679	0.000457764	
6.09589	0.0579834	0.000305176	
6.09772	0.0610352	0.000305176	
6.09833	0.0619507	0.000762939	
6.09802	0.0616455	0.000152588	
6.09741	0.0628662	0.000457764	
6.09741	0.0662231	0.000457764	
6.09772	0.0668335	0.000610352	
6.09802	0.067749	0.000610352	
6.09863	0.071106	0.000610352	
6.10046	0.0717163	0.000457764	
6.10229	0.0732422	0.000152588	
6.1026	0.0759888	0.000152588	
6.10291	0.0772095	0.000457764	
6.10321	0.0778198	0.000305176	
6.10321	0.0805664	0.000305176	
6.10291	0.0808716	0.000610352	
6.10321	0.0811768	0.000305176	
6.10535	0.0817871	0.000457764	
6.10687	0.085144	0.000762939	
6.10779	0.0854492	0.000762939	
6.10779	0.0869751	0.000610352	
6.10748	0.090332	0.000457764	
6.1084	0.0906372	0.000610352	
6.10748	0.0915527	0	
6.10718	0.0946045	0.000152588	
6.1084	0.09552	0.000762939	
6.11145	0.0967407	0.000305176	
6.11267	0.0991821	0.000305176	
6.11267	0.100098	0.000305176	
6.11237	0.100708	0.000305176	
6.11359	0.101318	0.000762939	
6.11206	0.104065	0.000610352	
6.11328	0.105286	0.000457764	
6.11359	0.106201	0	
6.11359	0.108948	0.000305176	
6.11603	0.110168	0.000762939	
6.11786	0.111084	0.000457764	
6.11755	0.113831	0	
6.11786	0.115356	0.000305176	
6.11786	0.115356	0.000152588	
6.11786	0.116272	0.000457764	
6.11755	0.119324	0.000457764	
6.11816	0.120239	0.000305176	
6.11847	0.12085	0.000762939	
6.12061	0.124207	0.000915527	
6.12213	0.125122	0.000915527	
6.12305	0.125732	0.000305176	
6.12244	0.125427	0.000457764	
6.12244	0.128784	0.000610352	
6.12305	0.130005	0.000457764	
6.12213	0.13031	0.000152588	
6.12305	0.133972	0.000152588	
6.12335	0.135498	0.000305176	
6.12335	0.135193	0.000152588	
6.12579	0.136108	0.000152588	
6.12701	0.139771	0.000915527	
6.12793	0.140381	0.000305176	
6.12793	0.140381	0.000457764	
6.12732	0.143738	0.000762939	
6.12793	0.145264	0.000305176	
6.12732	0.144958	0.000457764	
6.12793	0.145874	0.000457764	
6.12762	0.148315	0.000152588	
6.12854	0.149536	0	
6.13098	0.149841	0.000305176	
6.1319	0.151062	0.000457764	
6.1322	0.153198	0.000457764	
6.13281	0.154419	0.000152588	
6.13342	0.154724	0.000457764	
6.13281	0.155334	0.000457764	
6.1319	0.158081	0.000305176	
6.13251	0.159607	0.000457764	
6.13281	0.158997	0.000457764	
6.13281	0.159607	-0.000152588	
6.13586	0.162964	0.000305176	
6.13708	0.164185	0.000610352	
6.13708	0.164795	0	
6.13739	0.165405	0.000152588	
6.13678	0.168152	0.000152588	
6.13678	0.169373	0.000457764	
6.13831	0.169373	0.000457764	
6.13739	0.169373	0.000152588	
6.1377	0.172424	0.000457764	
6.1377	0.173645	0	
6.14105	0.174255	0.000152588	
6.14197	0.174255	0.000457764	
6.14166	0.176086	0.000305176	
6.14288	0.177917	0.000305176	
6.14258	0.179749	0.000457764	
6.14197	0.179443	0.000457764	
6.14227	0.179443	0.000152588	
6.14227	0.182495	0.000457764	
6.14227	0.183716	0.000610352	
6.14197	0.184021	0.000152588	
6.14319	0.183716	0	
6.14624	0.184631	0.000762939	
6.14655	0.187683	0.000457764	
6.14746	0.188293	0.000610352	
6.14838	0.188293	0.000915527	
6.14746	0.188904	0.000457764	
6.14777	0.188904	0.000457764	
6.14777	0.192566	0.000457764	
6.14685	0.193787	0.000610352	
6.14746	0.194397	0	
6.14777	0.194397	-0.000152588	
6.14746	0.193787	0.000762939	
6.15051	0.194397	0	
6.15173	0.197754	0.000152588	
6.15295	0.198669	0.000610352	
6.15204	0.198669	0.000152588	
6.15204	0.198364	0.000762939	
6.15295	0.19928	0.000457764	
6.15234	0.202637	0.000762939	
6.15204	0.203247	-0.000305176	
6.15204	0.203552	0.000305176	
6.15173	0.204468	0.000610352	
6.15112	0.203552	0.000457764	
6.15173	0.203247	0.000152588	
6.1557	0.204468	0.000152588	
6.15662	0.207214	0.000457764	
6.15723	0.208435	0.000152588	
6.15753	0.208435	0.000610352	
6.15723	0.20874	0.000610352	
6.15692	0.20813	0.000152588	
6.15753	0.208435	0	
6.15692	0.20752	0.000610352	
6.15753	0.20813	0.000457764	
6.15723	0.208435	0.000610352	
6.15723	0.20874	0.000305176	
6.15723	0.208435	0.000457764	
6.15692	0.208435	0.000305176	
6.15753	0.20874	0.000457764	
6.15997	0.209656	0.000610352	
6.1615	0.211792	0.000457764	
6.16241	0.213318	0.000305176	
6.16211	0.213928	0.000610352	
6.16272	0.213318	0.000305176	
6.16302	0.213928	0.000915527	
6.16486	0.214233	0.000457764	
6.16699	0.213928	0.000610352	
6.16669	0.213928	-0.000152588	
6.16638	0.217285	0.00106812	
6.1673	0.217896	0.000610352	
6.16699	0.21759	0.000610352	
6.16699	0.218506	0.000152588	
6.16699	0.218201	0.000152588	
6.16638	0.217896	0.000152588	
6.1673	0.218201	0	
6.16699	0.217896	0.000305176	
6.16638	0.218506	0.000305176	
6.1676	0.219421	-0.000152588	
6.16974	0.222168	0.000915527	
6.17188	0.223389	0.000305176	
6.17218	0.222778	0.000305176	
6.17218	0.223083	0.000305176	
6.17249	0.223083	0.000457764	
6.17188	0.223694	0.000305176	
6.17249	0.223389	0	
6.17218	0.222778	0.000457764	
6.17249	0.223389	0.000457764	
6.17218	0.223083	-0.000305176	
6.17096	0.223694	0.00106812	
6.17126	0.223083	0	
6.17188	0.223999	0.000305176	
6.17249	0.227051	0.000457764	
6.17493	0.227966	0.000305176	
6.17645	0.228577	0.000457764	
6.17676	0.227966	0.000457764	
6.17798	0.227966	0.000457764	
6.17706	0.227966	0.000152588	
6.17706	0.227966	-0.000305176	
6.17615	0.228271	0.000152588	
6.17615	0.228577	0.000457764	
6.17676	0.227966	0.000457764	
6.17676	0.227966	0	
6.17645	0.228271	0.000305176	
6.17645	0.228577	0.000610352	
6.17676	0.228577	0.000457764	
6.17645	0.229492	0.000762939	
6.17706	0.228577	0.000610352	
6.17645	0.228577	0.000305176	
6.17676	0.227966	0.000762939	
6.17737	0.228271	0.000305176	
6.17645	0.228271	0.000457764	
6.17615	0.229187	0.000610352	
6.1792	0.228882	0.000305176	
6.18134	0.228271	0.000457764	
6.18073	0.227966	0.000457764	
6.18164	0.228882	0.000152588	
6.18164	0.228882	0.000305176	
6.18195	0.228271	0.000457764	
6.18134	0.227661	0.000915527	
6.18134	0.227966	0.000152588	
6.18073	0.228271	-0.000152588	
6.18134	0.227966	0.000762939	
6.18164	0.228882	0.000152588	
6.18195	0.227966	0	
6.18195	0.228271	0.000305176	
6.18439	0.228882	0.000152588	
6.18591	0.228882	0.000610352	
6.18591	0.228577	0.000152588	
6.18683	0.228577	0.000305176	
6.18622	0.228271	0.000457764	
6.18713	0.228271	0.000152588	
6.18652	0.227356	0.000915527	
6.18622	0.228271	0.000610352	
6.18713	0.228882	0.000457764	
6.18652	0.227966	0.000457764	
6.18652	0.228271	0.000610352	
6.18591	0.228271	0.000457764	
6.18683	0.228577	-0.000152588	
6.18652	0.227661	0.000305176	
6.18683	0.228882	0.000457764	
6.18652	0.227966	0.000152588	
6.18988	0.227966	0.000915527	
6.19141	0.228577	0.000305176	
6.19171	0.226746	0.000610352	
6.1908	0.224609	0.000457764	
6.19202	0.223389	0.000457764	
6.19171	0.223694	0.000305176	
6.19171	0.223694	0.000305176	
6.19202	0.223083	0.000610352	
6.19141	0.223694	0.000610352	
6.19171	0.223389	-0.000457764	
6.19141	0.223389	0.000457764	
6.19141	0.223389	0.000152588	
6.19232	0.223694	0.000152588	
6.1911	0.223389	0	
6.19171	0.223083	0.000305176	
6.19141	0.223083	0.000305176	
6.19141	0.222168	0.000305176	
6.19476	0.219727	0.000915527	
6.19629	0.218506	0.000152588	
6.19598	0.218506	-0.000152588	
6.19659	0.218201	0.000915527	
6.1972	0.218506	0.000457764	
6.19629	0.21759	-0.000152588	
6.19659	0.218506	0.000457764	
6.19629	0.219116	0.000152588	
6.1969	0.218201	0	
6.1969	0.218506	0	
6.1969	0.21759	0.000610352	
6.19629	0.214844	0.000305176	
6.19629	0.213928	0.000152588	
6.19629	0.213013	0.000762939	
6.19659	0.213318	0.000457764	
6.19659	0.213318	0.000305176	
6.1969	0.213318	0	
6.1969	0.213623	0.000457764	
6.19965	0.213928	0.000457764	
6.20026	0.212402	0.000305176	
6.20178	0.209961	0.000152588	
6.20117	0.20874	0.000305176	
6.20178	0.208435	-0.000152588	
6.20117	0.20874	0.000610352	
6.20148	0.20813	0.000305176	
6.20178	0.208435	0.000457764	
6.20056	0.208435	0.000305176	
6.20117	0.20813	0.000457764	
6.20056	0.205383	0.000305176	
6.20148	0.203247	0	
6.20148	0.204468	0.000762939	
6.20117	0.203857	0.000457764	
6.20117	0.202942	-0.000152588	
6.20087	0.203552	0.000610352	
6.20056	0.203552	0.000152588	
6.20178	0.202942	0.000305176	
6.20117	0.200195	0.000305176	
6.20178	0.198669	0.000457764	
6.20453	0.198364	0.000457764	
6.20544	0.198364	0.000457764	
6.20605	0.198975	0.000762939	
6.20575	0.198059	0.000152588	
6.20667	0.195007	0.000152588	
6.20636	0.194397	0.00106812	
6.20667	0.193787	0.000457764	
6.20636	0.193787	0.000152588	
6.20636	0.194092	0.000457764	
6.20636	0.193787	0.000305176	
6.20605	0.192871	0.000457764	
6.20605	0.19043	0	
6.20636	0.189514	0.000610352	
6.20605	0.189209	0.000610352	
6.20636	0.188904	0.000305176	
6.20667	0.188599	0.000915527	
6.20636	0.188293	0.000610352	
6.20697	0.185242	0.000457764	
6.20697	0.184021	0.000610352	
6.20636	0.184326	0.000457764	
6.20667	0.184021	0.000457764	
6.20941	0.184631	-0.000152588	
6.21155	0.1828	0.000152588	
6.21155	0.180054	0.000152588	
6.21155	0.179138	-0.000152588	
6.21124	0.179443	0.000610352	
6.21124	0.178833	0.000457764	
6.21094	0.178833	0.00106812	
6.21094	0.175476	0.000915527	
6.21185	0.174255	0.000762939	
6.21094	0.174561	0.000610352	
6.21216	0.174255	0.000305176	
6.21155	0.174255	0.000610352	
6.21155	0.173645	0.000610352	
6.21185	0.170593	0	
6.21185	0.169678	0.000610352	
6.21155	0.169373	0.000305176	
6.21094	0.169067	0.000610352	
6.21094	0.169373	0.000305176	
6.21185	0.166016	0.000610352	
6.21094	0.164795	0.000305176	
6.21124	0.16449	0.000457764	
6.21185	0.164185	0.000762939	
6.21185	0.163269	0.000610352	
6.21246	0.160522	-0.000152588	
6.2146	0.159912	0.000610352	
6.21552	0.159912	0.000457764	
6.21643	0.159912	0	
6.21643	0.158997	0.000152588	
6.21643	0.15564	0.000305176	
6.21582	0.155029	0.000457764	
6.21674	0.154724	0.000305176	
6.21674	0.155029	0.000610352	
6.21582	0.154419	0.000457764	
6.21582	0.151062	0	
6.21643	0.149536	0.000762939	
6.21674	0.150146	0.000305176	
6.21674	0.150452	0.000610352	
6.21704	0.149231	0.000305176	
6.21643	0.146179	0.000610352	
6.21643	0.144653	0.000457764	
6.21613	0.144958	-0.000152588	
6.21674	0.144348	0.000305176	
6.21704	0.143738	0.000610352	
6.21613	0.141296	0.000305176	
6.21613	0.140381	0.000610352	
6.21613	0.140381	0.000152588	
6.21674	0.139465	0.000305176	
6.21613	0.140076	0.000762939	
6.21613	0.137024	0.000305176	
6.21704	0.135498	0.000610352	
6.21979	0.134888	0.000457764	
6.22131	0.134888	0.00106812	
6.22131	0.131531	0.000305176	
6.22101	0.13031	-0.000152588	
6.22101	0.13031	0.000457764	
6.22192	0.130005	0.000152588	
6.22131	0.129395	0.000152588	
6.22162	0.126343	0.000152588	
6.22162	0.125732	0.000305176	
6.22162	0.125427	0.000457764	
6.22131	0.124512	0.000152588	
6.22162	0.124817	0.000762939	
6.22101	0.12207	0.000610352	
6.22192	0.120544	-0.000152588	
6.22101	0.120544	0.000915527	
6.22131	0.120239	0.000305176	
6.22101	0.119324	0.000305176	
6.22131	0.116577	0	
6.22101	0.115662	0	
6.22131	0.115967	0.000457764	
6.22131	0.115662	0	
6.22101	0.114746	0.000457764	
6.22131	0.111389	0.000610352	
6.22192	0.110474	0	
6.22131	0.110779	0.000915527	
6.22131	0.109863	0.000762939	
6.22101	0.107117	0.000305176	
6.22101	0.106201	0.000610352	
6.22162	0.105591	0.000610352	
6.22131	0.105286	0.000762939	
6.22131	0.104675	0.000152588	
6.22437	0.101624	0.000152588	
6.22559	0.100098	0.000610352	
6.22559	0.100708	0.000305176	
6.22589	0.101013	0.000762939	
6.22589	0.0997925	0.000610352	
6.22711	0.0970459	0.000305176	
6.22681	0.0964355	0.000610352	
6.2262	0.0958252	0.000305176	
6.2265	0.0961304	0.000457764	
6.22589	0.0952148	0.000305176	
6.2262	0.0927734	0.000915527	
6.22589	0.0915527	0.000305176	
6.2262	0.0912476	-0.000305176	
6.22589	0.0906372	0.000457764	
6.22681	0.0900269	0.000152588	
6.2265	0.0872803	0.000305176	
6.22711	0.0857544	-0.000152588	
6.2265	0.0860596	0.000457764	
6.2262	0.0857544	0.000152588	
6.22589	0.0854492	0	
6.2262	0.083313	0.000457764	
6.2262	0.0811768	0.000305176	
6.22559	0.0814819	0	
6.2265	0.0811768	0.000762939	
6.2262	0.0808716	0.000610352	
6.2262	0.0805664	0.000305176	
6.2262	0.0784302	0.000305176	
6.22681	0.0772095	0.000305176	
6.2262	0.0775146	0	
6.2262	0.0765991	0.000152588	
6.2265	0.0759888	0.000762939	
6.22589	0.0735474	0.000152588	
6.2262	0.0726318	0.000152588	
6.22681	0.0726318	0.000762939	
6.2265	0.0726318	0.000152588	
6.22589	0.0714111	0.000457764	
6.22711	0.0683594	0.000305176	
6.22894	0.0674438	0.000305176	
6.23047	0.0671387	0.000305176	
6.23138	0.0674438	0	
6.23138	0.0671387	0.000305176	
6.23138	0.0668335	0.000152588	
6.23108	0.0637817	0.000152588	
6.23108	0.0622559	0.000762939	
6.23138	0.0628662	0.000457764	
6.23138	0.062561	0.000457764	
6.23077	0.0619507	0.000457764	
6.23108	0.0613403	0.000610352	
6.23138	0.0582886	0.000305176	
6.23138	0.057373	0.000152588	
6.23077	0.0567627	0.000762939	
6.23108	0.0576782	0.000457764	
6.23108	0.0570679	0	
6.23138	0.0534058	0.000457764	
6.23077	0.0524902	0.000152588	
6.23138	0.0521851	0.000305176	
6.23077	0.0521851	0.000457764	
6.23199	0.0527954	0.000457764	
6.23077	0.0521851	0.000457764	
6.23108	0.0518799	0.000152588	
6.23138	0.0494385	0.000762939	
6.23047	0.0482178	0.000610352	
6.23138	0.0476074	0.000152588	
6.23138	0.0473022	0.000457764	
6.23108	0.0479126	0.000610352	
6.23169	0.0463867	0.000305176	
6.23108	0.0436401	0.000305176	
6.23169	0.0427246	0.000457764	
6.23169	0.0424194	0.000457764	
6.23108	0.043335	0.000152588	
6.23108	0.0421143	0.000610352	
6.23108	0.0418091	0.000152588	
6.23108	0.0390625	0	
6.23077	0.0378418	0.0012207	
6.23077	0.0378418	0.000457764	
6.23138	0.0369263	0.000457764	
6.23138	0.0378418	0.000457764	
6.23169	0.0375366	0.000457764	
6.23169	0.0369263	0.000305176	
6.23108	0.0335693	-0.000152588	
6.23108	0.0326538	0.000457764	
6.23138	0.032959	0.000152588	
6.23138	0.032959	0.000152588	
6.23138	0.0326538	0.000610352	
6.23138	0.0323486	0.000305176	
6.23413	0.0332642	0.000457764	
6.23566	0.0323486	0.000305176	
6.23627	0.0292969	0.000610352	
6.23657	0.0280762	0.000457764	
6.23657	0.027771	0.000152588	
6.23627	0.027771	0.000610352	
6.23657	0.027771	0.000305176	
6.23566	0.0274658	0.000152588	
6.23596	0.027771	0.000305176	
6.23596	0.0274658	0.000457764	
6.23627	0.0244141	0.000305176	
6.23566	0.0231934	0.000305176	
6.23657	0.0231934	0.000305176	
6.23627	0.0231934	0.000305176	
6.23596	0.022583	0.000305176	
6.23566	0.0228882	0.000915527	
6.23566	0.022583	0.000305176	
6.23627	0.0219727	0.000152588	
6.23596	0.0195313	0.000610352	
6.23566	0.0183105	0.000305176	
6.23657	0.0177002	0.000457764	
6.23535	0.0183105	0.000152588	
6.23566	0.0180054	0	
6.23627	0.0183105	0.000457764	
6.23657	0.0180054	0.000152588	
6.23566	0.0183105	0.000762939	
6.23627	0.0177002	0.000610352	
6.23688	0.0149536	0.000152588	
6.23657	0.0134277	0.000915527	
6.23596	0.0131226	0.000152588	
6.23596	0.0131226	0.000457764	
6.23627	0.0134277	0.000457764	
6.23657	0.0128174	0.000152588	
6.23627	0.0137329	0.000610352	
6.23566	0.0125122	-0.000152588	
6.23627	0.0131226	0.000305176	
6.23535	0.0125122	0.000305176	
6.23566	0.00946045	0	
6.23657	0.00854492	0.000457764	
6.23596	0.00793457	0.000457764	
6.23566	0.00854492	0.000457764	
6.23566	0.00823975	0.000457764	
6.23627	0.00854492	0.000610352	
6.23657	0.00854492	0.000457764	
6.23657	0.00762939	0.000305176	
6.23596	0.00823975	0.000610352	
6.23657	0.00823975	0.000305176	
6.23596	0.00823975	-0.000152588	
6.23596	0.00732422	0.000762939	
6.23596	0.00366211	0.000610352	
6.23627	0.00366211	0.000457764	
6.23596	0.00305176	0.000152588	
6.23627	0.00305176	0.000305176	
6.23596	0.00305176	0.000152588	
6.23596	0.00274658	0.000457764	
6.23627	0.00335693	0.000915527	
6.23627	0.00305176	0.000457764	
6.23566	0.00335693	0.000152588	
6.23566	0.00366211	0.000610352	
6.23657	0.00244141	0.000152588	
6.23627	0.00366211	0.000457764	
6.23627	0.00213623	0.000305176	
6.23657	-0.000915527	0.000305176	
6.23566	-0.00152588	0.000152588	
6.23596	-0.00152588	-0.000152588	
6.23627	-0.0012207	0.000305176	
6.23566	-0.0012207	0.000305176	
6.23657	-0.00152588	0.000305176	
6.23627	-0.0012207	0.000915527	
6.23627	-0.00213623	0.000457764	
6.23627	-0.0012207	0.000610352	
6.23596	-0.00213623	0.000457764	
6.23596	-0.00183105	0.000305176	
6.23566	-0.00183105	0.000457764	
6.23596	-0.0012207	-0.000152588	
6.23566	-0.00152588	0.000610352	
6.23596	-0.000915527	0.000305176	
6.23596	-0.00213623	0.000152588	
6.23596	-0.000915527	0.000457764	
6.23627	-0.00213623	0.000305176	
6.23596	-0.00488281	0.000610352	
6.23596	-0.00610352	0.000610352	
6.23596	-0.00640869	0.000457764	
6.23627	-0.00549316	0.000610352	
6.23657	-0.00640869	0.000152588	
6.23657	-0.00640869	0.000610352	
6.23627	-0.00640869	0.000305176	
6.23627	-0.00640869	-0.000152588	
6.23627	-0.00640869	0.000457764	
6.23688	-0.00549316	0.000152588	
6.23596	-0.00671387	0.000305176	
6.23657	-0.00640869	0.000152588	
6.23596	-0.00671387	0.000305176	
6.23566	-0.00640869	0.000610352	
6.23627	-0.00610352	0.000457764	
6.23596	-0.00640869	0.000610352	
6.23596	-0.00610352	0.000457764	
6.23566	-0.00610352	-0.000152588	
6.23627	-0.00701904	0.000762939	
6.23627	-0.00640869	0.000457764	
6.23627	-0.00610352	0.000305176	
6.23596	-0.00640869	0.000152588	
6.23596	-0.00640869	0.000152588	
6.23627	-0.00610352	0.000457764	
6.23688	-0.00610352	0	
6.23566	-0.00640869	0.000305176	
6.23657	-0.00671387	0.000305176	
6.23627	-0.00976563	0	
6.23627	-0.0106812	0.000915527	
6.23627	-0.0106812	0.000305176	
6.23627	-0.0109863	0.000457764	
6.23596	-0.0106812	0.000305176	
6.23627	-0.010376	0.000457764	
6.23688	-0.0106812	0.000457764	
6.23566	-0.010376	0.000305176	
6.23657	-0.0109863	0.000610352	
6.23627	-0.0109863	0.000152588	
6.23596	-0.0112915	0	
6.23627	-0.0109863	0.000762939	
6.23627	-0.0115967	-0.000152588	
6.23657	-0.010376	0.000610352	
6.23688	-0.0109863	0.000457764	
6.23627	-0.010376	0.000915527	
6.23596	-0.0109863	0.000762939	
6.23596	-0.0115967	0.000305176	
6.23596	-0.0115967	0.000610352	
6.23657	-0.0112915	0.000610352	
6.23627	-0.0119019	0.000152588	
6.23627	-0.0109863	0.000762939	
6.23657	-0.0106812	0.000305176	
6.23627	-0.0112915	0	
6.23657	-0.0106812	0.000610352	
6.23688	-0.0109863	0.000152588	
6.23627	-0.0109863	0.000305176	
6.23627	-0.0112915	0.000305176	
6.23627	-0.0112915	0.000610352	
6.23596	-0.010376	0.000305176	
6.23596	-0.0115967	-0.000152588	
6.23535	-0.0109863	0.000762939	
6.23596	-0.0112915	0.000457764	
6.23535	-0.0109863	0.000305176	
6.23657	-0.0115967	0	
6.23627	-0.0106812	0.000305176	
6.23627	-0.0115967	0.000152588	
6.23627	-0.0109863	0	
6.23627	-0.0119019	0.000457764	
6.23627	-0.0112915	0.000457764	
6.23627	-0.0112915	0.000152588	
6.23688	-0.0109863	0.000915527	
6.23657	-0.0112915	0.000305176	
6.23566	-0.0109863	0.000610352	
6.23596	-0.0112915	0.000457764	
6.23627	-0.0115967	0.000610352	
6.23596	-0.0119019	0.000457764	
6.23657	-0.0112915	0	
6.23596	-0.0109863	0.000152588	
6.23627	-0.0112915	0.000305176	
6.23596	-0.0115967	0	
6.23566	-0.0109863	0.000762939	
6.23627	-0.0109863	0.000152588	
6.23596	-0.0112915	0.000457764	
6.23657	-0.0109863	0.000457764	
6.23627	-0.0106812	0.000457764	
6.23627	-0.0112915	0.000457764	
6.23596	-0.0112915	0	
6.23627	-0.0119019	0.000610352	
6.23566	-0.0112915	0.000457764	
6.23596	-0.0112915	-0.000457764	
6.23596	-0.0112915	0.000457764	
6.23596	-0.0115967	0.000152588	
6.23627	-0.0109863	0.000305176	
6.23596	-0.0112915	0.000152588	
6.23657	-0.0112915	0.000457764	
6.23627	-0.0109863	0.000152588	
6.23627	-0.0115967	0.000762939	
6.23627	-0.0109863	0.000610352	
6.23596	-0.0119019	0.000457764	
6.23627	-0.0112915	-0.000152588	
6.23688	-0.0112915	0.000915527	
6.23566	-0.0109863	0.000305176	
6.23596	-0.0109863	0.000457764	
6.23627	-0.0109863	-0.000152588	
6.23596	-0.0112915	0.000610352	
6.23657	-0.0112915	0.000457764	
6.23627	-0.0112915	0.000305176	
6.23566	-0.0109863	0.000152588	
6.23718	-0.0112915	0.000610352	
6.23566	-0.0112915	0.000152588	
6.23688	-0.0112915	0.00106812	
6.23657	-0.0106812	0.000305176	
6.23657	-0.0112915	0.000305176	
6.23657	-0.0112915	0.000305176	
6.23596	-0.0112915	0.000762939	
6.23657	-0.0106812	0.000457764	
6.23657	-0.0112915	0.000152588	
6.23566	-0.010376	-0.000152588	
6.23627	-0.00793457	0.000152588	
6.23688	-0.00671387	0.000152588	
6.23627	-0.00640869	0.000762939	
6.23535	-0.00579834	0.000457764	
6.23657	-0.00610352	0.000305176	
6.23596	-0.00579834	0.000305176	
6.23627	-0.00579834	0.000457764	
6.23657	-0.00579834	0.000457764	
6.23505	-0.00640869	0.000152588	
6.23566	-0.00671387	0.000610352	
6.23566	-0.00579834	0.000305176	
6.2326	-0.00640869	0	
6.23138	-0.00549316	0.000610352	
6.23138	-0.00640869	0.000305176	
6.23077	-0.00610352	0.000305176	
6.23169	-0.00671387	0	
6.23169	-0.00640869	0.000152588	
6.23138	-0.00640869	0.000305176	
6.23108	-0.00640869	0.000457764	
6.23199	-0.00671387	0.000762939	
6.23108	-0.00701904	0.000152588	
6.23108	-0.00671387	0	
6.23108	-0.00610352	0.000762939	
6.23138	-0.00701904	0.000305176	
6.23169	-0.00671387	0	
6.23138	-0.00640869	0.000152588	
6.23108	-0.00610352	0	
6.23138	-0.00671387	0.000305176	
6.23108	-0.00671387	0.000305176	
6.23108	-0.00671387	0.000152588	
6.23138	-0.00671387	0.000305176	
6.23169	-0.00640869	0.000152588	
6.23108	-0.00610352	0.000457764	
6.23077	-0.00640869	0.000152588	
6.23077	-0.00610352	0.000457764	
6.23108	-0.00671387	0.000762939	
6.23108	-0.00640869	0.000457764	
6.23016	-0.00701904	0.000152588	
6.23077	-0.00640869	0.000305176	
6.23108	-0.00579834	0.000152588	
6.23108	-0.00671387	0.000305176	
6.23077	-0.00671387	0.000152588	
6.23108	-0.00640869	0.000457764	
6.23077	-0.00640869	0.000457764	
6.23108	-0.00610352	0	
6.23108	-0.00579834	0.000305176	
6.23077	-0.00640869	0.000762939	
6.23138	-0.00610352	0.000457764	
6.23108	-0.00610352	0.000610352	
6.23108	-0.00671387	0.000457764	
6.23047	-0.00671387	0.000457764	
6.23047	-0.00610352	0.000305176	
6.22742	-0.00640869	0.000457764	
6.22681	-0.00579834	0.000152588	
6.22559	-0.00610352	0.000305176	
6.2265	-0.00610352	0.000305176	
6.2262	-0.00579834	0.000305176	
6.22589	-0.00640869	0.000152588	
6.2265	-0.00640869	0.000762939	
6.22528	-0.00671387	0.000915527	
6.2265	-0.00610352	0.000457764	
6.2265	-0.00640869	0.000152588	
6.2262	-0.00610352	0.000305176	
6.2262	-0.00671387	0.000305176	
6.22589	-0.00640869	0.000457764	
6.22589	-0.00640869	0.000152588	
6.2262	-0.00701904	0.000457764	
6.22589	-0.00701904	0.000305176	
6.22589	-0.00640869	0.000305176	
6.2265	-0.00610352	0.000305176	
6.2262	-0.00671387	0.000762939	
6.2265	-0.00610352	0.000457764	
6.2265	-0.00640869	0.000457764	
6.22589	-0.00549316	0.000457764	
6.22589	-0.00549316	0.000457764	
6.22589	-0.00579834	0.00106812	
6.2265	-0.00305176	0.000457764	
6.22589	-0.00152588	0.000457764	
6.2262	-0.0012207	0.000152588	
6.22711	-0.00183105	0.000152588	
6.2265	-0.00152588	0.000305176	
6.22681	-0.0012207	0.000152588	
6.22681	-0.00152588	0.000152588	
6.2262	-0.00152588	0.000457764	
6.2262	-0.00152588	0	
6.22589	-0.0012207	0.000915527	
6.22589	-0.000915527	0.000610352	
6.22589	-0.00152588	0.000305176	
6.22681	-0.0012207	0.000457764	
6.2262	-0.00152588	0.000305176	
6.2262	-0.0012207	0.000610352	
6.22559	-0.0012207	0.000305176	
6.22284	-0.0012207	0	
6.22131	-0.00152588	0.000305176	
6.2207	-0.00152588	-0.000305176	
6.22101	-0.0012207	0.000915527	
6.22101	-0.0012207	0.000152588	
6.22101	-0.00213623	0.000762939	
6.22131	-0.00152588	0.000762939	
6.22101	-0.000915527	0.000457764	
6.22162	-0.0012207	0.000610352	
6.22162	-0.0012207	0.000305176	
6.22162	-0.0012207	0.000305176	
6.22131	-0.0012207	0.000152588	
6.22131	-0.00152588	-0.000152588	
6.22131	-0.000915527	0.000762939	
6.22101	-0.000915527	0.000305176	
6.2207	-0.0012207	0.000152588	
6.22101	-0.0012207	0.000152588	
6.22131	-0.0012207	0.000457764	
6.22162	-0.00152588	0.000457764	
6.22131	-0.000915527	0.000305176	
6.22101	-0.0012207	0.000457764	
6.22131	-0.0012207	0.000457764	
6.22162	-0.0012207	-0.000152588	
6.22192	-0.0012207	0.00106812	
6.22131	-0.00152588	0.000457764	
6.22162	-0.000915527	0.000457764	
6.22101	-0.00183105	0.000457764	
6.22162	-0.00152588	0.000152588	
6.21826	-0.00183105	0.000305176	
6.21704	-0.0012207	0.000457764	
6.21582	-0.00274658	0.000152588	
6.21613	-0.00457764	0.000152588	
6.21643	-0.00579834	0	
6.21613	-0.00640869	0.00106812	
6.21582	-0.00579834	0.000610352	
6.21613	-0.00640869	0.000457764	
6.21704	-0.00549316	0.000610352	
6.21643	-0.00610352	0.000457764	
6.21674	-0.00610352	0.000457764	
6.21613	-0.00610352	0.000305176	
6.21674	-0.00701904	0	
6.21643	-0.00701904	0.000457764	
6.21613	-0.00640869	-0.000152588	
6.21643	-0.00610352	0.000762939	
6.21613	-0.00640869	0.000305176	
6.21613	-0.00671387	0.000305176	
6.21704	-0.00610352	0.000610352	
6.21643	-0.00640869	0.000915527	
6.21643	-0.00610352	0.000762939	
6.21643	-0.00640869	0.000457764	
6.21613	-0.00640869	0.000457764	
6.21552	-0.00640869	0.000305176	
6.21246	-0.00671387	-0.000152588	
6.21216	-0.00671387	0.000610352	
6.21124	-0.00640869	0.000152588	
6.21124	-0.00610352	0.000305176	
6.21155	-0.00610352	0.000152588	
6.21063	-0.00610352	0.000152588	
6.21155	-0.00671387	0	
6.21155	-0.00640869	0.000610352	
6.21094	-0.00640869	0.000762939	
6.21124	-0.00610352	0.000610352	
6.21124	-0.00610352	-0.000152588	
6.21094	-0.00610352	0.00106812	
6.21094	-0.00671387	0.000305176	
6.21185	-0.00610352	0.000457764	
6.21155	-0.00610352	0	
6.21185	-0.00640869	0.000305176	
6.21216	-0.00640869	0.000305176	
6.21155	-0.00640869	0.000610352	
6.21124	-0.00610352	0.000152588	
6.21124	-0.00640869	0.000152588	
6.21094	-0.00640869	-0.000305176	
6.2085	-0.00640869	0.000762939	
6.20667	-0.00640869	0.000610352	
6.20667	-0.00579834	0.000610352	
6.20544	-0.00610352	0.000610352	
6.20636	-0.00640869	0.000762939	
6.20667	-0.00579834	0.000305176	
6.20667	-0.00671387	0.000152588	
6.20667	-0.00610352	0.000152588	
6.20667	-0.00671387	0.000457764	
6.20697	-0.00671387	-0.000152588	
6.20636	-0.00579834	0.000762939	
6.20697	-0.00671387	0.000457764	
6.20697	-0.0100708	0.000305176	
6.20636	-0.0109863	0.000457764	
6.20697	-0.0109863	0.000762939	
6.20667	-0.0109863	0.000610352	
6.20636	-0.0112915	0.000457764	
6.20636	-0.0109863	0.000305176	
6.20544	-0.0115967	0.000152588	
6.203	-0.0109863	-0.000305176	
6.20178	-0.0109863	0.000762939	
6.20117	-0.0112915	0.000305176	
6.20148	-0.0115967	0.000152588	
6.20117	-0.0106812	0.000152588	
6.20209	-0.0106812	0.000152588	
6.20148	-0.0115967	0.000457764	
6.20148	-0.0115967	0.000610352	
6.20178	-0.0112915	0.000762939	
6.20056	-0.0112915	0.000457764	
6.20178	-0.0112915	-0.000152588	
6.20087	-0.0109863	0.000915527	
6.20056	-0.0109863	0.000305176	
6.20178	-0.0112915	0.000152588	
6.20148	-0.0109863	0.000152588	
6.20117	-0.0109863	-0.000152588	
6.20087	-0.0112915	0.000457764	
6.19781	-0.0109863	0.000152588	
6.1969	-0.0112915	0.000457764	
6.19781	-0.0112915	0.000152588	
6.19598	-0.0112915	0.000305176	
6.19659	-0.0112915	0.00106812	
6.19659	-0.0106812	0.000610352	
6.19659	-0.0112915	0.000610352	
6.19568	-0.0125122	0.000610352	
6.19659	-0.0146484	0.000610352	
6.19659	-0.0161743	0.000305176	
6.19629	-0.0170898	0.000305176	
6.1969	-0.0164795	0.000305176	
6.19629	-0.015564	0.000152588	
6.19629	-0.0161743	-0.000152588	
6.19659	-0.0158691	0.000915527	
6.19415	-0.0164795	0.000305176	
6.19171	-0.0158691	0.000457764	
6.19171	-0.0161743	0.000610352	
6.1908	-0.0158691	0.000610352	
6.19171	-0.0161743	0.000305176	
6.19232	-0.0167847	0.000457764	
6.19141	-0.0164795	0.000457764	
6.19171	-0.0161743	0.000305176	
6.19202	-0.0158691	-0.000305176	
6.19293	-0.0164795	0.000610352	
6.19171	-0.0164795	0	
6.1911	-0.0161743	0.000457764	
6.19171	-0.0164795	-0.000152588	
6.1911	-0.0164795	0.000305176	
6.19171	-0.0164795	0.000457764	
6.18805	-0.0158691	0.000762939	
6.18683	-0.0164795	0.000305176	
6.18652	-0.0164795	0.000305176	
6.18713	-0.0161743	-0.000305176	
6.18622	-0.0161743	0.00106812	
6.18622	-0.0164795	0.000457764	
6.18683	-0.0198364	0.000457764	
6.18683	-0.0210571	0.000152588	
6.18652	-0.0213623	0.000152588	
6.18591	-0.0216675	0.000305176	
6.18561	-0.0201416	0.000457764	
6.18652	-0.0210571	0.000457764	
6.18591	-0.0210571	0.000305176	
6.18286	-0.0213623	-0.000152588	
6.18225	-0.020752	0.00106812	
6.18195	-0.0210571	0.000610352	
6.18164	-0.020752	0.000610352	
6.18195	-0.0213623	0.000305176	
6.18164	-0.0210571	0.000610352	
6.18164	-0.0213623	0.000915527	
6.18195	-0.0216675	0.000152588	
6.18225	-0.0213623	0.000152588	
6.18256	-0.0216675	0.000152588	
6.18164	-0.0204468	-0.000305176	
6.18164	-0.020752	0.000610352	
6.18073	-0.0213623	0.000152588	
6.17859	-0.020752	0.000610352	
6.17676	-0.0204468	0.000457764	
6.17645	-0.0204468	0.000915527	
6.17615	-0.0216675	0.000610352	
6.17676	-0.0210571	0.000610352	
6.17645	-0.0216675	0.000457764	
6.17737	-0.0250244	0.000457764	
6.17615	-0.0262451	-0.000457764	
6.17615	-0.0262451	0.000762939	
6.17706	-0.0259399	0.000305176	
6.17676	-0.0256348	0.000457764	
6.17645	-0.0256348	0.000152588	
6.17371	-0.0256348	0.000152588	
6.17279	-0.0256348	0.000762939	
6.17249	-0.0256348	0.000762939	
6.17188	-0.0259399	0.000610352	
6.17096	-0.0262451	0.000457764	
6.17188	-0.0256348	0.000152588	
6.17157	-0.0262451	0.000915527	
6.17157	-0.0259399	0.000305176	
6.17188	-0.0262451	0.000457764	
6.17249	-0.0262451	0.000152588	
6.17157	-0.0265503	0.000305176	
6.16943	-0.0265503	0.000457764	
6.1673	-0.0262451	0.000305176	
6.16821	-0.0262451	0.000152588	
6.1673	-0.0250244	0.000152588	
6.16638	-0.0259399	0	
6.16669	-0.0253296	0.00106812	
6.16699	-0.0259399	0.000457764	
6.16669	-0.0256348	0.000152588	
6.16699	-0.0268555	0.000305176	
6.1673	-0.0292969	0.000457764	
6.16638	-0.0299072	0.000610352	
6.16302	-0.0311279	0	
6.16302	-0.0314331	0.000152588	
6.16211	-0.0311279	0	
6.16119	-0.0311279	0	
6.16211	-0.0308228	0.000915527	
6.16241	-0.0311279	0.000610352	
6.16211	-0.0311279	0.000305176	
6.16211	-0.0308228	0.000762939	
6.16211	-0.0314331	0.000915527	
6.1615	-0.0308228	0.000457764	
6.15906	-0.0311279	0.000610352	
6.15723	-0.0311279	0.000457764	
6.15723	-0.0308228	0.000762939	
6.15692	-0.0308228	-0.000457764	
6.15723	-0.0305176	0.00106812	
6.15753	-0.0308228	0.000610352	
6.15784	-0.0308228	0.000305176	
6.15662	-0.0308228	0.000152588	
6.15723	-0.0311279	0.000457764	
6.15692	-0.0308228	0.000305176	
6.15387	-0.0314331	0.000762939	
6.15295	-0.0305176	0.000457764	
6.15234	-0.0311279	0.000457764	
6.15143	-0.0305176	-0.000152588	
6.15234	-0.0320435	0.00106812	
6.15265	-0.0344849	0.000305176	
6.15143	-0.0357056	0.000305176	
6.15234	-0.0357056	0.000152588	
6.15173	-0.0363159	0.000152588	
6.15234	-0.0357056	0.000610352	
6.14868	-0.0357056	0.000457764	
6.14777	-0.0354004	0.000305176	
6.14716	-0.0360107	0.000610352	
6.14746	-0.0357056	0.000152588	
6.14746	-0.0357056	0.0012207	
6.14777	-0.0354004	0.000457764	
6.14746	-0.0357056	0.000305176	
6.14807	-0.0357056	0.000610352	
6.14777	-0.03479	0.000610352	
6.14471	-0.0360107	0.000610352	
6.14319	-0.0354004	0.000457764	
6.14288	-0.0360107	0.000305176	
6.14288	-0.0357056	0.000305176	
6.14166	-0.0363159	-0.000152588	
6.14258	-0.0357056	0.000915527	
6.14227	-0.0363159	0.000457764	
6.14197	-0.0357056	0.000457764	
6.14258	-0.0354004	0.000610352	
6.13953	-0.0360107	0.000457764	
6.1377	-0.0360107	0.000457764	
6.13647	-0.0357056	0	
6.13739	-0.0360107	0.000457764	
6.13708	-0.0363159	0.000610352	
6.13708	-0.0363159	-0.000305176	
6.13708	-0.0396729	0.000610352	
6.138	-0.0405884	0.000305176	
6.13647	-0.039978	0.000305176	
6.13464	-0.0396729	0.000152588	
6.13312	-0.0408936	0.000305176	
6.1319	-0.0408936	0.000305176	
6.13312	-0.0405884	0.000610352	
6.13281	-0.0411987	0.000457764	
6.13251	-0.0415039	0.000305176	
6.13251	-0.0411987	-0.000152588	
6.1322	-0.0408936	0.000457764	
6.13251	-0.0411987	0.000610352	
6.12946	-0.0402832	0.000305176	
6.12823	-0.0405884	0.000152588	
6.12701	-0.0402832	0.000457764	
6.12823	-0.0405884	0.000457764	
6.12762	-0.0402832	0.000457764	
6.12823	-0.039978	0.000457764	
6.12762	-0.0411987	0.000457764	
6.12762	-0.0405884	0.000457764	
6.12488	-0.0411987	0.000762939	
6.12305	-0.0405884	0.000762939	
6.12305	-0.0402832	0.000457764	
6.12183	-0.0405884	0.000152588	
6.12244	-0.0402832	0.000762939	
6.12305	-0.0402832	0.000457764	
6.12244	-0.0411987	0.000152588	
6.12213	-0.0408936	0.000305176	
6.12213	-0.0408936	0.000457764	
6.11938	-0.0405884	-0.000152588	
6.11786	-0.0408936	0.000610352	
6.11786	-0.0408936	0.000915527	
6.11877	-0.0418091	0.000762939	
6.11786	-0.0442505	0.000762939	
6.11725	-0.0457764	0.000762939	
6.11786	-0.0457764	0.000305176	
6.11725	-0.045166	0.000610352	
6.1142	-0.0460815	0.000610352	
6.11298	-0.0460815	0.000457764	
6.11237	-0.0448608	0.000152588	
6.11267	-0.0460815	0.000305176	
6.11298	-0.0457764	0.000457764	
6.11328	-0.045166	0.000305176	
6.11328	-0.0460815	0.000305176	
6.11328	-0.0454712	0.000457764	
6.10962	-0.0460815	0.000305176	
6.1084	-0.0454712	0.000610352	
6.10718	-0.0454712	0.000305176	
6.10687	-0.0454712	0.000457764	
6.10809	-0.0457764	-0.000152588	
6.10748	-0.0454712	0	
6.10687	-0.0460815	0.000305176	
6.10779	-0.045166	0.000610352	
6.1087	-0.0454712	0.000305176	
6.10718	-0.0454712	0.000152588	
6.10748	-0.045166	0.000762939	
6.10168	-0.0460815	0.000152588	
6.09802	-0.045166	0.000457764	
6.09863	-0.0448608	0.000305176	
6.09833	-0.0460815	0.000610352	
6.09772	-0.0457764	0.000762939	
6.09711	-0.0460815	0.000457764	
6.09497	-0.0454712	0.000610352	
6.09314	-0.045166	0.000610352	
6.09314	-0.0457764	0.000305176	
6.09314	-0.0457764	0.000762939	
6.09314	-0.0460815	0.000152588	
6.09314	-0.0457764	0	
6.09283	-0.0457764	0.000305176	
6.09009	-0.0457764	0.000305176	
6.08826	-0.0466919	0.000152588	
6.08795	-0.0488281	-0.000305176	
6.08795	-0.0506592	0.000610352	
6.08887	-0.0500488	0.000915527	
6.08795	-0.050354	0.000305176	
6.08795	-0.050354	0.000610352	
6.08459	-0.050354	0.000457764	
6.08337	-0.050354	0.000457764	
6.08276	-0.050354	0.000457764	
6.08307	-0.0512695	0.000152588	
6.08337	-0.0506592	0.000152588	
6.08307	-0.0509644	0	
6.08276	-0.0512695	0.000457764	
6.07971	-0.0509644	0.000457764	
6.0791	-0.0500488	0.000152588	
6.07788	-0.0506592	0.000762939	
6.07819	-0.050354	0.000610352	
6.07819	-0.050354	0.000152588	
6.07849	-0.0500488	0.000305176	
6.07727	-0.0515747	0.000305176	
6.07513	-0.050354	0.000610352	
6.07422	-0.050354	0.000457764	
6.073	-0.0506592	0.000610352	
6.07269	-0.0506592	0	
6.07269	-0.0509644	-0.000152588	
6.073	-0.050354	0.000762939	
6.07056	-0.0506592	0.000610352	
6.06842	-0.0509644	0.000457764	
6.06873	-0.0512695	0.000762939	
6.06873	-0.0506592	0.000457764	
6.0675	-0.0506592	0.000610352	
6.06812	-0.050354	0.000457764	
6.06873	-0.0506592	0.000457764	
6.06476	-0.0500488	0.000610352	
6.06323	-0.0506592	0.000152588	
6.06354	-0.0500488	0.000915527	
6.06323	-0.0509644	0.000152588	
6.06293	-0.0506592	-0.000152588	
6.06323	-0.0506592	0.000305176	
6.06049	-0.0500488	0.000305176	
6.05865	-0.0506592	0.000152588	
6.05865	-0.050354	0.000152588	
6.05774	-0.050354	0.000305176	
6.05896	-0.0509644	0.000610352	
6.05774	-0.0540161	0.000152588	
6.05591	-0.0552368	0.000457764	
6.05377	-0.055542	0.000610352	
6.05408	-0.0552368	0.000457764	
6.05316	-0.055542	0.000305176	
6.05377	-0.0558472	0.000305176	
6.05316	-0.055542	0.000305176	
6.05011	-0.0552368	0	
6.04919	-0.0546265	0.000915527	
6.04828	-0.055542	0.000305176	
6.04858	-0.055542	0.000152588	
6.04797	-0.055542	0.000762939	
6.04584	-0.055542	0.000457764	
6.04431	-0.0546265	0.000457764	
6.0437	-0.0549316	0.000305176	
6.0434	-0.055542	0.000457764	
6.0434	-0.0552368	0.000457764	
6.0434	-0.0552368	0.000305176	
6.04034	-0.055542	0.000762939	
6.03943	-0.0552368	0.000152588	
6.03882	-0.0552368	-0.000152588	
6.03851	-0.0552368	0.000762939	
6.03821	-0.0552368	0.000610352	
6.03577	-0.0549316	0.000305176	
6.03394	-0.055542	0.000762939	
6.03394	-0.0552368	0.000457764	
6.03394	-0.055542	0.000457764	
6.03363	-0.0561523	0.000305176	
6.03333	-0.055542	0.000915527	
6.02997	-0.0561523	0.000152588	
6.02966	-0.055542	0.000152588	
6.02905	-0.0552368	0.000457764	
6.02905	-0.0558472	0.000305176	
6.02875	-0.0552368	0.000305176	
6.02539	-0.0558472	0.000152588	
6.02386	-0.055542	0.000457764	
6.02386	-0.055542	0.000305176	
6.02386	-0.0561523	-0.000152588	
6.02386	-0.0549316	0.000457764	
6.02112	-0.055542	0.000610352	
6.01929	-0.0561523	0.000305176	
6.01929	-0.0552368	0.00106812	
6.01837	-0.0552368	0.000457764	
6.01868	-0.0552368	0.000457764	
6.01471	-0.0558472	0.000457764	
6.0141	-0.0558472	0.000305176	
6.0141	-0.0549316	0.000305176	
6.0141	-0.055542	0	
6.01379	-0.0552368	0.000457764	
6.0141	-0.0564575	0.000305176	
6.01105	-0.0561523	-0.000305176	
6.00952	-0.0552368	0.000762939	
6.00891	-0.0549316	0.000457764	
6.00891	-0.055542	0.000610352	
6.00555	-0.0549316	0.000152588	
6.00372	-0.0549316	0.000457764	
6.00433	-0.055542	0.000457764	
6.00464	-0.055542	-0.000152588	
6.00372	-0.0546265	0.000457764	
6.00159	-0.0558472	0	
5.99884	-0.0552368	-0.000152588	
5.99976	-0.0552368	0.00106812	
5.99884	-0.055542	0.000305176	
5.99915	-0.0558472	0.000305176	
5.9964	-0.055542	0.000305176	
5.99426	-0.0558472	0.000457764	
5.99487	-0.055542	0.000305176	
5.99396	-0.0558472	0.000305176	
5.99426	-0.055542	0.000457764	
5.9903	-0.055542	0.000152588	
5.9906	-0.0558472	0.000152588	
5.98999	-0.0549316	0.000762939	
5.98846	-0.0558472	0.000457764	
5.98663	-0.055542	0.000152588	
5.98419	-0.055542	0.000457764	
5.9845	-0.0558472	0.000305176	
5.9845	-0.055542	0	
5.98419	-0.055542	0	
5.98175	-0.0549316	0.000610352	
5.97961	-0.055542	0.000457764	
5.979	-0.0558472	0.000152588	
5.97992	-0.055542	0.000915527	
5.97931	-0.0552368	0.000610352	
5.97565	-0.055542	0.000610352	
5.97473	-0.0552368	0.000457764	
5.97443	-0.0552368	0.000305176	
5.97382	-0.055542	0.000152588	
5.97137	-0.0558472	0.000305176	
5.97015	-0.055542	0.000762939	
5.96985	-0.0561523	0.000457764	
5.96924	-0.0552368	0	
5.96588	-0.0521851	0.000305176	
5.96466	-0.0506592	0.000305176	
5.96466	-0.0506592	0.00106812	
5.96497	-0.050354	0.000610352	
5.96497	-0.050354	0.000305176	
5.96466	-0.0506592	0.000762939	
5.96497	-0.0506592	0.000305176	
5.9613	-0.0506592	0.000610352	
5.96069	-0.0506592	0	
5.95978	-0.0500488	0.000610352	
5.95947	-0.0506592	0.000457764	
5.95642	-0.050354	0.000305176	
5.95551	-0.0497437	0.000762939	
5.95459	-0.0509644	0.000457764	
5.95367	-0.050354	0.000610352	
5.95184	-0.0466919	0.000762939	
5.95032	-0.0454712	0.000305176	
5.95001	-0.0460815	0.000457764	
5.94971	-0.0457764	0.000610352	
5.9494	-0.0457764	0.000152588	
5.94696	-0.0454712	0.000457764	
5.94574	-0.045166	-0.000152588	
5.94482	-0.0457764	0.000610352	
5.94482	-0.0454712	0.000305176	
5.94177	-0.0448608	0.000457764	
5.94025	-0.0415039	0.000152588	
5.93964	-0.0402832	-0.000152588	
5.93964	-0.039978	0.000610352	
5.93719	-0.0405884	0.000762939	
5.93506	-0.0405884	0.000457764	
5.93536	-0.0415039	0.000457764	
5.93506	-0.0402832	0.000152588	
5.93201	-0.0415039	0.000915527	
5.93079	-0.0405884	0.000457764	
5.93048	-0.0366211	0	
5.93018	-0.0354004	0.000152588	
5.92712	-0.0354004	0.000305176	
5.92529	-0.0354004	0.000457764	
5.92529	-0.0360107	0.000457764	
5.92468	-0.0360107	0.000305176	
5.92194	-0.0350952	0.000457764	
5.92072	-0.0323486	0	
5.9201	-0.0308228	0.000610352	
5.91919	-0.0302124	0.000457764	
5.91705	-0.0305176	0.000610352	
5.91522	-0.0317383	0.000305176	
5.91522	-0.0302124	0.000152588	
5.91522	-0.0274658	0.000305176	
5.91217	-0.0262451	0.000305176	
5.91125	-0.0265503	0.000152588	
5.91064	-0.0259399	0.000305176	
5.90973	-0.0265503	0	
5.9079	-0.0256348	0.000762939	
5.90576	-0.0222778	0.000457764	
5.90576	-0.0213623	0.000305176	
5.90454	-0.0213623	0.000762939	
5.9024	-0.0213623	0.000610352	
5.90088	-0.0201416	0.000762939	
5.89935	-0.0170898	0.000457764	
5.89752	-0.0158691	0.000152588	
5.896	-0.0161743	0.000152588	
5.896	-0.0164795	0	
5.89508	-0.0152588	0.000610352	
5.89172	-0.0119019	0.000305176	
5.89081	-0.0115967	0.000610352	
5.89081	-0.0109863	0.000305176	
5.8905	-0.0112915	0.000152588	
5.88745	-0.0106812	0.000457764	
5.88562	-0.00762939	0.000762939	
5.88531	-0.00610352	0.000762939	
5.88623	-0.00579834	0.000457764	
5.88196	-0.00610352	0.000457764	
5.88074	-0.00274658	0.000457764	
5.88074	-0.000915527	0.000610352	
5.87738	-0.00213623	0.000305176	
5.87646	-0.0012207	0.000457764	
5.87555	-0.000915527	0.000152588	
5.87494	0.00213623	0.000610352	
5.8728	0.00305176	0.000305176	
5.87158	0.00274658	0.000152588	
5.87097	0.00335693	0.000457764	
5.87128	0.00701904	0.000305176	
5.86792	0.00762939	0.000915527	
5.8667	0.00854492	0.000457764	
5.86609	0.00915527	0.000610352	
5.86517	0.0125122	0.000457764	
5.86243	0.0131226	0.000305176	
5.8609	0.0131226	0.000610352	
5.8606	0.0137329	0.000305176	
5.85815	0.0158691	0.000305176	
5.85693	0.0177002	0.000305176	
5.85632	0.0183105	0	
5.85571	0.0192261	0.000915527	
5.85266	0.0213623	0.000152588	
5.85144	0.0228882	0.000610352	
5.85114	0.0238037	0.000915527	
5.84778	0.0265503	0.000305176	
5.84717	0.0274658	0.000457764	
5.84656	0.0283813	0.000610352	
5.84564	0.0286865	0.000457764	
5.8432	0.0311279	0.000610352	
5.84167	0.0323486	-0.000152588	
5.84137	0.032959	0.000610352	
5.83801	0.0335693	0.000457764	
5.83679	0.0366211	0.000305176	
5.83649	0.0375366	0.000152588	
5.83649	0.038147	0.000152588	
5.83282	0.0415039	0.000915527	
5.83221	0.0424194	0.000610352	
5.83099	0.0430298	0.000305176	
5.82794	0.0436401	0.000610352	
5.82764	0.0460815	0.000152588	
5.82703	0.0473022	0.000762939	
5.82642	0.0485229	0.000762939	
5.82397	0.0506592	0.000305176	
5.82214	0.0521851	0.000305176	
5.82184	0.0524902	0.000305176	
5.81787	0.0527954	0.000610352	
5.81757	0.0564575	0.000305176	
5.81726	0.057373	0.000457764	
5.81726	0.0576782	0.000610352	
5.81329	0.06073	0.000457764	
5.81238	0.0616455	0.000762939	
5.81146	0.0631714	0.000610352	
5.80872	0.0656128	0.000152588	
5.80719	0.0665283	0.000762939	
5.80688	0.0662231	0.000152588	
5.80627	0.067749	0.000457764	
5.80414	0.0701904	0.000305176	
5.8017	0.0720215	0.000457764	
5.8017	0.072937	0.000305176	
5.79865	0.0756836	0	
5.79834	0.0775146	0.000915527	
5.79651	0.078125	0.000305176	
5.79407	0.0802612	0.000457764	
5.79224	0.0811768	0.000610352	
5.79193	0.0808716	0.000152588	
5.79193	0.0817871	0.000305176	
5.78918	0.0845337	0.000457764	
5.78796	0.0857544	0.000152588	
5.78705	0.0869751	0.000457764	
5.78369	0.0900269	0	
5.78217	0.090332	0.000610352	
5.78094	0.0915527	0.000305176	
5.77942	0.0949097	0.000305176	
5.7782	0.0958252	0.000305176	
5.77759	0.09552	0.000152588	
5.77728	0.0967407	0.000610352	
5.77423	0.0991821	0.000762939	
5.77271	0.101318	0.000610352	
5.77148	0.101318	0.000457764	
5.76904	0.104065	0.000305176	
5.76782	0.105896	0.000762939	
5.7666	0.105591	0.000457764	
5.76477	0.106201	0.000152588	
5.76263	0.109253	0.000152588	
5.76202	0.110779	-0.000152588	
5.76202	0.110779	0.000457764	
5.75928	0.114136	0.000305176	
5.75836	0.115967	-0.000152588	
5.75684	0.116272	0.000305176	
5.75439	0.119019	0.000305176	
5.75287	0.120239	0.000762939	
5.75256	0.12085	0.000152588	
5.74951	0.12085	0.000610352	
5.74799	0.124207	0.000610352	
5.74768	0.125427	0	
5.74463	0.125732	0.000457764	
5.7428	0.128784	0.000305176	
5.74219	0.1297	0.000457764	
5.74005	0.130005	0.000305176	
5.73883	0.13031	0	
5.73822	0.133667	0.000915527	
5.7373	0.133972	0.000457764	
5.73517	0.135498	0.000610352	
5.73303	0.135498	0.000457764	
5.73273	0.13916	0.000152588	
5.72968	0.140076	0.000915527	
5.72815	0.140686	0.000610352	
5.72662	0.143433	0.000457764	
5.72418	0.144958	0.000457764	
5.72327	0.144653	-0.000152588	
5.72266	0.145874	0.000762939	
5.72021	0.148621	0.000457764	
5.71808	0.149536	0.000305176	
5.71777	0.150146	0.000457764	
5.71411	0.151367	0.000305176	
5.7132	0.153809	0.000610352	
5.7135	0.15564	0.000762939	
5.71228	0.155334	0.000457764	
5.71075	0.155945	0.000305176	
5.70831	0.157471	0	
5.70709	0.158997	0.000915527	
5.70465	0.159912	0.000457764	
5.70374	0.160217	0.000305176	
5.70343	0.162659	0.000152588	
5.70068	0.163574	0	
5.69885	0.164795	0.000457764	
5.69824	0.16449	0.000152588	
5.69458	0.167542	0.000152588	
5.69397	0.168762	0.000305176	
5.69275	0.169373	0.000457764	
5.69031	0.169983	0.000915527	
5.68878	0.172424	0.000457764	
5.68756	0.173645	0.000610352	
5.68573	0.17395	0.000457764	
5.68451	0.174866	0.000457764	
5.68359	0.175171	0.000457764	
5.68024	0.177307	0.000305176	
5.67902	0.179138	0.000305176	
5.6781	0.179138	0.000152588	
5.67566	0.178833	0	
5.67413	0.179138	0.000915527	
5.67383	0.182495	0.000305176	
5.67108	0.184326	0.000457764	
5.67017	0.184021	0.000305176	
5.66864	0.184937	0.000457764	
5.66559	0.187683	0.000610352	
5.66437	0.189209	0.000152588	
5.66345	0.188904	0.000457764	
5.66101	0.188599	0.000305176	
5.65918	0.187988	-0.000152588	
5.65918	0.189514	0.000610352	
5.65582	0.192871	0	
5.65369	0.193787	0.000152588	
5.65338	0.194092	0.000457764	
5.65155	0.194092	0.000305176	
5.6488	0.194092	0.000762939	
5.64941	0.197754	0.000610352	
5.64606	0.198975	0.000457764	
5.64514	0.198669	0.000457764	
5.64392	0.198975	0	
5.64178	0.198669	0.000762939	
5.63995	0.199585	0.000152588	
5.63873	0.202332	-0.000152588	
5.6366	0.203247	0.000457764	
5.63507	0.204163	-0.000152588	
5.63354	0.204468	0.000762939	
5.63141	0.203857	0.000152588	
5.62927	0.204163	0.000457764	
5.62927	0.204163	0.000457764	
5.62683	0.207214	0.000305176	
5.62531	0.20874	0.00106812	
5.62408	0.208435	0.000457764	
5.62134	0.209351	0.000305176	
5.62012	0.20813	0.000305176	
5.61981	0.20813	0.000457764	
5.61676	0.209045	0.000610352	
5.61523	0.209351	0.000457764	
5.61432	0.212708	0.000152588	
5.61127	0.213623	0.000305176	
5.60974	0.213318	0	
5.60944	0.213318	0.000305176	
5.60638	0.213623	0.000762939	
5.60516	0.213623	0.000610352	
5.60425	0.213318	0.000610352	
5.60181	0.213623	0.000305176	
5.59998	0.214233	0.000762939	
5.59906	0.217896	0.000457764	
5.59662	0.218506	0.000457764	
5.59448	0.217896	0.000457764	
5.59418	0.219116	-0.000152588	
5.59174	0.218201	0.000762939	
5.59021	0.218811	0.000152588	
5.58929	0.217896	0.000152588	
5.58655	0.218201	0.000305176	
5.58563	0.218506	0.000152588	
5.58441	0.218811	0.000305176	
5.58228	0.218811	0.000457764	
5.58075	0.219727	0.000762939	
5.57953	0.222473	0.000457764	
5.57678	0.223694	0.000152588	
5.57526	0.223389	0.000762939	
5.57434	0.223083	0.000305176	
5.57159	0.223083	0.000305176	
5.57068	0.223389	0.000305176	
5.57007	0.223083	0.000152588	
5.56671	0.223083	0.000762939	
5.56488	0.223389	0.000762939	
5.56488	0.223389	0.000457764	
5.56183	0.223389	0.000152588	
5.56061	0.223083	0.000305176	
5.55695	0.223389	0.000915527	
5.55511	0.223694	0.000610352	
5.55511	0.223389	0.000457764	
5.55237	0.223999	0.000457764	
5.55084	0.223389	0.000152588	
5.54962	0.223083	0.000762939	
5.54749	0.223389	0.000152588	
5.54565	0.223999	0.000152588	
5.54504	0.223083	0.000305176	
5.5423	0.223389	0	
5.54077	0.223389	0.000762939	
5.53986	0.223389	0.000610352	
5.53802	0.223389	0.000457764	
5.53619	0.223083	0.000762939	
5.53497	0.223694	0.000152588	
5.53223	0.223999	0.000610352	
5.53131	0.227356	0.000610352	
5.5304	0.227966	0.000610352	
5.52765	0.227051	0.000610352	
5.52551	0.224915	-0.000457764	
5.5246	0.223389	0.000457764	
5.52307	0.223389	0	
5.52124	0.223083	0.000457764	
5.51697	0.223389	0.000305176	
5.51636	0.223694	0.000305176	
5.51575	0.223389	0.000457764	
5.51331	0.223389	0.000762939	
5.51086	0.223694	0.000610352	
5.51086	0.222778	0.000457764	
5.50781	0.223389	0	
5.50659	0.222473	0.000762939	
5.50629	0.223389	0.000762939	
5.50323	0.223083	0.000305176	
5.50171	0.223083	0.000305176	
5.5011	0.223694	0.000305176	
5.49744	0.223083	0.000152588	
5.49683	0.223083	0.000305176	
5.49561	0.223083	0.000305176	
5.49316	0.223694	0.000305176	
5.49164	0.223389	0.000152588	
5.48828	0.223083	0.000305176	
5.48615	0.223694	0.000152588	
5.48645	0.223389	0.000305176	
5.48676	0.223389	0.000457764	
5.48615	0.223083	0.000762939	
5.48584	0.222778	0.000915527	
5.48645	0.223694	0.000305176	
5.48523	0.222778	0.000457764	
5.47668	0.219421	0.000305176	
5.46936	0.218201	0.000457764	
5.46692	0.218201	0.000305176	
5.466	0.218201	0.000457764	
5.46356	0.218811	0.000610352	
5.46265	0.218201	0.000610352	
5.45898	0.21759	0.000305176	
5.45715	0.218506	0.000762939	
5.45654	0.218811	0.000152588	
5.45288	0.218201	0.000457764	
5.45288	0.218506	0.000152588	
5.45166	0.218201	0.000152588	
5.44891	0.218201	0.000305176	
5.44769	0.213928	0.000457764	
5.44647	0.213928	0.000152588	
5.44281	0.213623	0.000305176	
5.4425	0.213623	0.000305176	
5.44189	0.213623	0.00106812	
5.43884	0.212708	0.000457764	
5.43732	0.213928	0.000762939	
5.43396	0.213623	0.000457764	
5.43304	0.213318	0.000152588	
5.43213	0.213623	0.000457764	
5.42969	0.209656	0.000305176	
5.42786	0.208435	0.000457764	
5.42755	0.209045	0.000152588	
5.42358	0.208435	-0.000152588	
5.42267	0.20874	0.000610352	
5.42206	0.208435	0	
5.41809	0.209045	0.000457764	
5.41779	0.20813	0.000305176	
5.41718	0.20813	0.000915527	
5.41382	0.205078	0.000457764	
5.4129	0.203552	0.000610352	
5.40894	0.203552	0.000152588	
5.40771	0.203552	0.000457764	
5.40741	0.202942	0.000457764	
5.40466	0.203247	0.000610352	
5.40314	0.203247	-0.000152588	
5.40192	0.201111	0.000457764	
5.39886	0.198364	0.000152588	
5.39764	0.198669	0.000457764	
5.39703	0.198975	0.000305176	
5.39398	0.19928	0.000457764	
5.39276	0.19928	0.000610352	
5.38971	0.198975	0.000457764	
5.38757	0.198364	-0.000152588	
5.38757	0.195923	0.000457764	
5.38452	0.194092	0.000457764	
5.383	0.193787	0.000762939	
5.38269	0.194092	0.000305176	
5.37933	0.193176	0.000152588	
5.37781	0.193176	0.000610352	
5.37689	0.190125	0.000152588	
5.37445	0.188599	0.000305176	
5.37292	0.188599	0.000305176	
5.37231	0.188904	0	
5.36987	0.189514	0.000915527	
5.36804	0.188904	0.000457764	
5.36499	0.185852	0.00106812	
5.36316	0.184326	0.000152588	
5.36224	0.184021	0.000457764	
5.36041	0.184326	0.000610352	
5.35797	0.184021	0.000305176	
5.35828	0.183716	0.000152588	
5.35522	0.180664	0.000305176	
5.3537	0.178833	0.000152588	
5.35278	0.179138	0.000457764	
5.34973	0.178528	0	
5.34851	0.179138	0.000762939	
5.34546	0.178223	0.000457764	
5.34424	0.175476	0.000762939	
5.34302	0.174561	0.000610352	
5.33997	0.174255	0.000457764	
5.33875	0.17395	0.000762939	
5.33783	0.174561	0.000610352	
5.33539	0.17334	0.000152588	
5.33417	0.170288	0.000457764	
5.33325	0.169067	0	
5.33081	0.169067	0.000305176	
5.32898	0.169678	0.00106812	
5.32837	0.168152	0.000610352	
5.32501	0.166321	0.000305176	
5.32379	0.1651	0.000305176	
5.32318	0.164795	0.000610352	
5.32043	0.16449	0.000610352	
5.3186	0.163574	0.000457764	
5.3183	0.160828	0.000762939	
5.31555	0.159607	0.000457764	
5.31372	0.159607	0.000305176	
5.31342	0.158997	0.000762939	
5.31036	0.158691	0.000305176	
5.30884	0.155945	0	
5.30548	0.155029	0.000305176	
5.30426	0.154724	0.000152588	
5.30396	0.154724	0.000152588	
5.3009	0.154419	-0.000152588	
5.29938	0.151978	0.000915527	
5.29816	0.150146	0.000915527	
5.29541	0.149841	0.000305176	
5.2948	0.150146	0.000915527	
5.29419	0.149536	0.000610352	
5.29053	0.14679	0.000305176	
5.28931	0.145569	0.000305176	
5.28534	0.144958	0.000305176	
5.28503	0.144958	0.000152588	
5.28381	0.144348	0	
5.28107	0.141602	0.000762939	
5.27954	0.139465	0.000152588	
5.27832	0.140381	0.000152588	
5.27588	0.138855	0.000915527	
5.27466	0.136719	0.000457764	
5.27344	0.135498	0.000457764	
5.2713	0.134583	0.000457764	
5.26917	0.135498	0.000610352	
5.26642	0.134277	0.000762939	
5.26459	0.131226	0	
5.26428	0.13031	0.000610352	
5.26123	0.13031	0	
5.26001	0.129089	-0.000305176	
5.2594	0.130005	0.000915527	
5.25635	0.126038	0.000457764	
5.25421	0.124817	0.000610352	
5.2536	0.124817	0.000457764	
5.25085	0.124512	0.000610352	
5.24963	0.12207	0.000457764	
5.24658	0.120544	0.000305176	
5.24506	0.120239	0.000915527	
5.24445	0.120239	0.000457764	
5.24109	0.119629	0.000152588	
5.23956	0.116272	0.00106812	
5.23956	0.115662	0.000152588	
5.23621	0.115662	0.000305176	
5.23438	0.114441	0.000457764	
5.23132	0.112305	0.000457764	
5.23041	0.110474	0.000305176	
5.22949	0.110168	0	
5.22644	0.110779	0.000457764	
5.22522	0.109558	0.000457764	
5.22491	0.106506	0.000152588	
5.22186	0.105896	0.000762939	
5.22034	0.105896	0	
5.21912	0.104675	0.000610352	
5.21698	0.101624	0.000305176	
5.21484	0.100403	0.000305176	
5.21179	0.100403	0.000305176	
5.21088	0.100098	0.000152588	
5.20996	0.0973511	0.000762939	
5.20691	0.09552	0.000305176	
5.20599	0.0958252	0	
5.20508	0.0952148	0.000610352	
5.20264	0.09552	0.000457764	
5.20081	0.0924683	0.000457764	
5.19958	0.0915527	0	
5.19775	0.0912476	0.000457764	
5.19562	0.090332	0.000152588	
5.19226	0.0872803	0.000457764	
5.19135	0.0860596	0.000915527	
5.18951	0.0857544	0.000152588	
5.18707	0.0857544	0	
5.18524	0.0860596	0.000457764	
5.18524	0.0820923	0.000305176	
5.1825	0.0808716	0.000152588	
5.18097	0.0805664	0.000152588	
5.17792	0.0808716	0.000762939	
5.17609	0.0787354	0.000610352	
5.17517	0.0772095	0.000457764	
5.17212	0.0775146	0.000610352	
5.1712	0.0772095	0.000762939	
5.16968	0.0769043	0	
5.16754	0.0738525	0.000610352	
5.16632	0.0720215	0	
5.16266	0.0720215	0.000152588	
5.16113	0.0717163	0.000152588	
5.16083	0.0714111	0	
5.15778	0.0680542	0.000610352	
5.15594	0.0671387	0	
5.15564	0.067749	0.000305176	
5.1532	0.0662231	0.000610352	
5.15106	0.0637817	0.000152588	
5.15076	0.062561	0.000762939	
5.14832	0.0622559	0.000457764	
5.14618	0.0619507	0.000457764	
5.14313	0.0619507	0.000457764	
5.14099	0.0582886	0.000305176	
5.1416	0.057373	0.000305176	
5.13916	0.0576782	0	
5.13672	0.057373	0.000610352	
5.1358	0.0567627	0.000305176	
5.13275	0.0537109	0.000152588	
5.13123	0.0531006	0.000762939	
5.12817	0.0524902	0.000915527	
5.12665	0.0518799	0.000915527	
5.12573	0.0515747	0.000457764	
5.12299	0.0491333	0.000610352	
5.12177	0.0473022	0.000457764	
5.12115	0.0482178	0.000457764	
5.1181	0.0476074	0.000610352	
5.11627	0.0469971	0	
5.11322	0.0439453	0	
5.112	0.0430298	0.00106812	
5.11139	0.0421143	0.000457764	
5.10895	0.0424194	0.000457764	
5.10712	0.0421143	0.000457764	
5.1059	0.0390625	0.000457764	
5.10315	0.0375366	0.000610352	
5.10193	0.0372314	0.000305176	
5.10101	0.0384521	0.000762939	
5.09796	0.0369263	0.000457764	
5.09674	0.0335693	0.000610352	
5.09338	0.0332642	0.000610352	
5.09216	0.0326538	0	
5.09155	0.032959	0.000305176	
5.08789	0.0323486	0.000305176	
5.08667	0.0286865	0.000305176	
5.08698	0.0280762	0.000305176	
5.08331	0.0271606	0.000152588	
5.08179	0.027771	0.000915527	
5.07935	0.027771	0.000610352	
5.07751	0.0271606	0.000305176	
5.0766	0.0244141	0.000610352	
5.07416	0.0228882	0	
5.07324	0.022583	0.000457764	
5.07294	0.0231934	0.000457764	
5.06927	0.0216675	0	
5.06744	0.0198364	0.000305176	
5.065	0.0177002	0.000305176	
5.06348	0.0180054	0.000610352	
5.06256	0.017395	0.000305176	
5.06012	0.0180054	0.000152588	
5.05768	0.0177002	0.000762939	
5.05737	0.0146484	0.000457764	
5.05463	0.0134277	0.000762939	
5.05249	0.0131226	0.000457764	
5.05005	0.0131226	0.000457764	
5.04944	0.0134277	0.000457764	
5.04791	0.0119019	0.000305176	
5.04456	0.00976563	0.000305176	
5.04303	0.00762939	0.000152588	
5.04242	0.00823975	-0.000152588	
5.03998	0.00793457	0.000762939	
5.03815	0.00793457	0.000610352	
5.03418	0.00701904	0.000305176	
5.03326	0.00427246	0.000305176	
5.03265	0.00366211	0.000610352	
5.03021	0.00305176	0.000152588	
5.02777	0.00244141	0.000305176	
5.02747	0.00335693	0.000610352	
5.02502	0.00274658	0.000305176	
5.02289	0.00274658	0	
5.02045	-0.000305176	0.000610352	
5.01801	-0.0012207	0.000152588	
5.01801	-0.00152588	0.000305176	
5.01495	-0.0012207	0.000152588	
5.01343	-0.000915527	0.000457764	
5.01282	-0.00152588	0.000457764	
5.00977	-0.00213623	0.000610352	
5.00793	-0.00457764	0.000457764	
5.00519	-0.00579834	0.000762939	
5.00366	-0.00701904	0.000305176	
5.00244	-0.00640869	0.000915527	
5.00031	-0.00610352	0.000457764	
4.99847	-0.00610352	0.000457764	
4.99817	-0.00671387	0.000305176	
4.99512	-0.0100708	0.000152588	
4.99359	-0.0112915	0	
4.99023	-0.0109863	0	
4.98871	-0.0112915	0.000762939	
4.9884	-0.0115967	0.000305176	
4.98566	-0.0109863	-0.000152588	
4.98413	-0.0119019	0.00106812	
4.98322	-0.0149536	0.000457764	
4.98047	-0.0152588	0.000610352	
4.97864	-0.0164795	0.000457764	
4.97803	-0.0161743	0.000152588	
4.9765	-0.0161743	0.000610352	
4.97406	-0.0158691	0.000305176	
4.97131	-0.0161743	0.000610352	
4.96887	-0.0158691	0	
4.96857	-0.0170898	-0.000305176	
4.96582	-0.0192261	0.000915527	
4.96429	-0.020752	0.000457764	
4.96368	-0.0219727	0.000762939	
4.96094	-0.0210571	0.000610352	
4.9588	-0.0204468	0.000457764	
4.95636	-0.0201416	0.000457764	
4.95514	-0.0210571	0.000610352	
4.95361	-0.0210571	0.000915527	
4.95056	-0.0213623	0.000610352	
4.94995	-0.0244141	0	
4.94965	-0.0253296	0.000457764	
4.94629	-0.0259399	0	
4.94415	-0.0262451	0.000305176	
4.94171	-0.0262451	0.000305176	
4.93958	-0.0256348	0.000457764	
4.93896	-0.0256348	0.000457764	
4.9353	-0.0262451	0	
4.93469	-0.0259399	0.000762939	
4.93408	-0.0265503	0.000457764	
4.93164	-0.0296021	0.000305176	
4.9295	-0.0305176	0.000762939	
4.92676	-0.0314331	0.000457764	
4.92493	-0.0311279	0.000305176	
4.92401	-0.0305176	0.000152588	
4.92188	-0.0308228	-0.000152588	
4.91974	-0.0308228	0.000305176	
4.91943	-0.0311279	0	
4.91638	-0.0308228	0.000762939	
4.91577	-0.0305176	0.000305176	
4.91394	-0.0311279	0.000305176	
4.91241	-0.0308228	0.000610352	
4.91028	-0.0344849	0.000610352	
4.90723	-0.0366211	0.000762939	
4.9054	-0.0360107	0.000457764	
4.90479	-0.0357056	0.000457764	
4.90204	-0.0357056	0.000305176	
4.90021	-0.0357056	0.000457764	
4.8999	-0.0357056	0.000610352	
4.89746	-0.0350952	0.000305176	
4.89502	-0.0354004	-0.000152588	
4.89197	-0.0354004	0.000610352	
4.89014	-0.0354004	0.000457764	
4.88983	-0.0360107	0.000762939	
4.88647	-0.0360107	0.000457764	
4.88586	-0.0357056	0.000610352	
4.88495	-0.0360107	0.000457764	
4.8822	-0.039978	0.000305176	
4.88037	-0.0405884	0.000457764	
4.87976	-0.0408936	0.000457764	
4.87701	-0.0411987	0	
4.87549	-0.0405884	0.000610352	
4.87244	-0.0408936	0.000305176	
4.87061	-0.0402832	0.000305176	
4.87061	-0.0415039	0	
4.86694	-0.0405884	0.000152588	
4.86572	-0.0405884	0.000152588	
4.86481	-0.0411987	0.000305176	
4.86176	-0.0405884	0.000610352	
4.86115	-0.0405884	0.000762939	
4.86053	-0.0411987	0.000152588	
4.85718	-0.0396729	0.000457764	
4.85626	-0.0408936	0.000915527	
4.8526	-0.0411987	0.000457764	
4.85046	-0.039978	0.000305176	
4.85016	-0.0408936	0.000152588	
4.84772	-0.0408936	0.000305176	
4.84589	-0.0418091	0.000305176	
4.84558	-0.043335	0.000762939	
4.84283	-0.0448608	0.000305176	
4.8407	-0.0460815	-0.000152588	
4.84009	-0.0457764	0.000610352	
4.83734	-0.0454712	0.000610352	
4.83551	-0.0454712	0.000457764	
4.83276	-0.0454712	0.000457764	
4.83154	-0.0460815	0.000610352	
4.83063	-0.0457764	0.000457764	
4.82727	-0.0457764	0.000457764	
4.82605	-0.0460815	0.000457764	
4.82544	-0.0454712	0.000305176	
4.82239	-0.0454712	0	
4.82086	-0.045166	0.000610352	
4.82086	-0.0457764	0.000305176	
4.81781	-0.0454712	0.000457764	
4.81628	-0.0457764	0.000305176	
4.81293	-0.0457764	0.000457764	
4.81171	-0.0457764	0.000610352	
4.8111	-0.0460815	0.000152588	
4.80804	-0.0457764	0.000915527	
4.80682	-0.0457764	0.000457764	
4.80652	-0.0457764	0.000152588	
4.80347	-0.0448608	0.000457764	
4.80133	-0.0457764	0.000152588	
4.80164	-0.0454712	0.000305176	
4.79858	-0.045166	0	
4.79706	-0.0460815	0.000305176	
4.79645	-0.0460815	0.000305176	
4.79309	-0.0454712	0	
4.79095	-0.045166	0.000915527	
4.78851	-0.0457764	0.000305176	
4.78638	-0.0457764	0.000152588	
4.78668	-0.0457764	0.000762939	
4.78271	-0.045166	0.000152588	
4.78271	-0.0457764	0.000305176	
4.78119	-0.0454712	0.000610352	
4.77814	-0.045166	0.000305176	
4.77661	-0.0454712	0.000305176	
4.7757	-0.0454712	0.000152588	
4.77386	-0.045166	0.000610352	
4.77203	-0.0460815	0.000762939	
4.76807	-0.0460815	0.000305176	
4.76715	-0.0457764	0.000762939	
4.76593	-0.045166	0.000762939	
4.76379	-0.045166	0.000305176	
4.76196	-0.0454712	0.000457764	
4.76196	-0.0457764	0.000457764	
4.7583	-0.0454712	0.000305176	
4.75769	-0.0454712	0.000305176	
4.75586	-0.0457764	0.000610352	
4.75311	-0.0457764	0.000457764	
4.7525	-0.0457764	0.000305176	
4.75128	-0.0460815	0.000762939	
4.74884	-0.0454712	0.000152588	
4.74762	-0.045166	0.000457764	
4.74701	-0.0454712	0.000610352	
4.74335	-0.0454712	0.000610352	
4.74243	-0.0460815	0.000762939	
4.73877	-0.0460815	0.000610352	
4.73724	-0.0460815	0.000762939	
4.73663	-0.045166	0.000305176	
4.73389	-0.0460815	0.000152588	
4.73267	-0.045166	0.000915527	
4.73206	-0.0457764	0.000152588	
4.72961	-0.0460815	0.000152588	
4.72839	-0.0463867	0.000305176	
4.72687	-0.0460815	0.000305176	
4.72443	-0.0463867	0.000305176	
4.72321	-0.0454712	0	
4.72229	-0.045166	0.000762939	
4.71893	-0.0457764	0.000457764	
4.7171	-0.0454712	0.000610352	
4.71436	-0.0457764	0.000915527	
4.71252	-0.0454712	0.000305176	
4.71191	-0.0457764	0.000152588	
4.70917	-0.0463867	0.000457764	
4.70825	-0.0457764	0.000305176	
4.70734	-0.0454712	0.000457764	
4.7049	-0.0457764	0.000152588	
4.70245	-0.0460815	0.000762939	
4.70184	-0.0463867	0.000457764	
4.69971	-0.0460815	0.000152588	
4.69788	-0.0460815	0.000915527	
4.69757	-0.0463867	0.000762939	
4.69513	-0.045166	0.000305176	
4.69299	-0.0454712	0.000915527	
4.69177	-0.0454712	0.000457764	
4.68994	-0.0457764	0.000457764	
4.68811	-0.0460815	0.000457764	
4.68506	-0.0454712	0.000610352	
4.68353	-0.045166	0	
4.6817	-0.0421143	0	
4.67987	-0.0405884	0.000762939	
4.67865	-0.0408936	0.000762939	
4.67743	-0.0405884	0.000457764	
4.67529	-0.0408936	0.000152588	
4.67316	-0.0405884	0.000610352	
4.67224	-0.0405884	0.000152588	
4.66949	-0.0408936	0.000305176	
4.66858	-0.0411987	0.000610352	
4.66766	-0.0408936	0.000305176	
4.66492	-0.0405884	0	
4.664	-0.0411987	0.000610352	
4.66309	-0.0411987	0.000305176	
4.66034	-0.0402832	0.000457764	
4.65851	-0.0405884	0.000457764	
4.65515	-0.0402832	0.000152588	
4.65332	-0.0402832	0.000305176	
4.65332	-0.0405884	0.000152588	
4.64966	-0.0405884	0.000457764	
4.64905	-0.0402832	0.000610352	
4.64813	-0.0408936	0.000152588	
4.64508	-0.0405884	0.000915527	
4.64417	-0.0405884	0.000457764	
4.64325	-0.0402832	0.000152588	
4.6405	-0.0408936	0.000152588	
4.63928	-0.0405884	0.000152588	
4.63837	-0.0405884	0.000305176	
4.6347	-0.0405884	0	
4.6344	-0.0402832	0.000457764	
4.63379	-0.0405884	0.000152588	
4.63013	-0.0408936	0	
4.62891	-0.0408936	0.000610352	
4.6283	-0.039978	0.000610352	
4.62555	-0.0402832	0.000305176	
