model_ppg1.acq
0.5 msec/sample
3 channels
RSP, X, RSPEC-R
Volts
PPG, X, PPGED-R
Volts
ECG, Y, RSPEC-R
mV
CH1	CH2	CH13	
245215	245215	245215	
1.08734	0.00305176	0.000305176	
1.08673	0.00335693	0	
1.08704	0.00610352	0.0012207	
1.08734	0.00793457	-0.000152588	
1.08673	0.0112915	0.000152588	
1.08734	0.0128174	0.000305176	
1.08734	0.0134277	0.000610352	
1.08765	0.0161743	0.000152588	
1.08673	0.0183105	0.000152588	
1.08765	0.0213623	0.000457764	
1.08673	0.022583	0.000457764	
1.08673	0.0256348	-0.000152588	
1.08643	0.027771	0.0012207	
1.08704	0.0311279	0.000457764	
1.08734	0.0323486	0.000610352	
1.08734	0.0326538	0.000457764	
1.08734	0.0357056	0.000152588	
1.08734	0.0375366	0.000305176	
1.08734	0.0408936	0.000305176	
1.08765	0.0424194	0.000457764	
1.08673	0.0460815	0.000152588	
1.08734	0.0476074	-0.000305176	
1.08643	0.0506592	0.00106812	
1.08704	0.0524902	0.000610352	
1.08704	0.0558472	0.000610352	
1.08673	0.057373	0.000305176	
1.08673	0.0601196	0.000457764	
1.08704	0.062561	0	
1.08795	0.0653076	0.000457764	
1.08765	0.0662231	0.000305176	
1.08704	0.0701904	0.000305176	
1.08673	0.0717163	-0.000152588	
1.08673	0.0747681	0.000915527	
1.08704	0.0772095	0.000305176	
1.08643	0.0799561	-0.000152588	
1.08704	0.0811768	0.000305176	
1.08734	0.0839233	0.000610352	
1.08673	0.0860596	0.000762939	
1.08704	0.0888062	0.000457764	
1.08734	0.093689	0.000457764	
1.08704	0.0958252	0.000457764	
1.08734	0.0991821	-0.000152588	
1.08673	0.101318	0.0012207	
1.08734	0.104065	0.000305176	
1.08795	0.105286	0.000152588	
1.08734	0.109253	0.000305176	
1.08704	0.110474	0.000457764	
1.08734	0.113831	0.000762939	
1.08795	0.118408	0.000305176	
1.08673	0.12085	0.000305176	
1.08704	0.124207	0.000457764	
1.08704	0.124817	-0.000152588	
1.08673	0.128784	0.0012207	
1.08643	0.130615	0.000305176	
1.08673	0.133057	0.000305176	
1.08643	0.134583	0.000762939	
1.08337	0.13855	0.000305176	
1.08276	0.142517	0.000152588	
1.08246	0.144653	0.000457764	
1.08246	0.1474	-0.000152588	
1.08215	0.150146	0.000152588	
1.08154	0.153503	-0.000457764	
1.08185	0.157471	0.000915527	
1.08246	0.158997	0.000610352	
1.08215	0.162354	0.000305176	
1.08246	0.164795	0.000762939	
1.08185	0.168152	0.000305176	
1.08246	0.169678	0.000610352	
1.08307	0.172119	0.000457764	
1.08215	0.177612	0.000305176	
1.08215	0.178833	0	
1.08246	0.182495	-0.000457764	
1.08154	0.184326	0.000915527	
1.08276	0.187073	0.000305176	
1.08215	0.188904	-0.000152588	
1.08215	0.192261	0.000305176	
1.08246	0.197449	0.000305176	
1.08215	0.198364	0.000610352	
1.08185	0.201416	0.000457764	
1.08215	0.204468	0	
1.08215	0.20752	0.000457764	
1.08246	0.20813	-0.000152588	
1.08215	0.211792	0.00106812	
1.08276	0.215759	0	
1.08246	0.218201	-0.000305176	
1.08215	0.221558	0.000610352	
1.08154	0.223694	0.000305176	
1.08246	0.22644	0.000762939	
1.08246	0.227966	0.000457764	
1.08276	0.231628	0.000762939	
1.08215	0.233154	0.000457764	
1.08246	0.236206	-0.000152588	
1.08276	0.241394	0.000915527	
1.08246	0.242615	0.000457764	
1.08246	0.245972	0.000305176	
1.08246	0.248108	0.000457764	
1.08215	0.250854	0.000457764	
1.08215	0.25238	0.000152588	
1.08276	0.256042	0	
1.08215	0.257874	0.000305176	
1.08246	0.26062	0.000457764	
1.08246	0.262146	-0.000457764	
1.08215	0.265808	0.000915527	
1.08337	0.267029	0.000762939	
1.08215	0.271606	0.000305176	
1.08215	0.271912	0.000305176	
1.08246	0.275879	0.000457764	
1.08215	0.2771	0.000457764	
1.08246	0.280457	0.000152588	
1.08276	0.282898	0.000305176	
1.08154	0.284729	0.000152588	
1.0791	0.288086	-0.000305176	
1.07758	0.289917	0.000915527	
1.07758	0.292358	0.000457764	
1.07788	0.295715	0	
1.07788	0.296936	0.000305176	
1.07758	0.300293	0.000610352	
1.07697	0.301819	0.000610352	
1.07758	0.305176	0	
1.07697	0.306702	0.000610352	
1.07758	0.310364	0.000457764	
1.07788	0.31189	-0.000305176	
1.07788	0.314941	0.00137329	
1.07758	0.315857	0.000457764	
1.07788	0.316772	0.000152588	
1.07819	0.319214	0.000457764	
1.07697	0.322266	0.000152588	
1.07758	0.324097	0.000305176	
1.07727	0.325928	0.000457764	
1.07727	0.329895	0.000457764	
1.07727	0.331116	0.000610352	
1.07758	0.330811	-0.000152588	
1.07788	0.334473	0.000915527	
1.07758	0.336304	0.000305176	
1.07758	0.338745	0.000152588	
1.07727	0.340271	0.000305176	
1.07758	0.340881	0.000152588	
1.07727	0.344238	0.000152588	
1.07758	0.345764	0	
1.07758	0.345764	0.000610352	
1.07788	0.349426	0.000457764	
1.07758	0.350952	-0.000305176	
1.07727	0.350952	0.000915527	
1.07819	0.354004	0.000610352	
1.07727	0.355225	0.000610352	
1.07788	0.359192	0.000152588	
1.07758	0.360718	0.000152588	
1.07605	0.361023	0.000457764	
1.07361	0.361023	0.000305176	
1.073	0.364075	0.000152588	
1.07208	0.365601	0.000457764	
1.07269	0.365601	-0.000457764	
1.07239	0.368652	0.000915527	
1.07208	0.370178	0.000152588	
1.07269	0.371094	0.000457764	
1.07269	0.37323	0.000457764	
1.07239	0.375366	0.000762939	
1.07269	0.375977	0.000457764	
1.07269	0.375671	0.000305176	
1.07239	0.378723	0.000305176	
1.07208	0.381165	0.000457764	
1.073	0.380859	-0.000305176	
1.07208	0.380859	0.00137329	
1.07208	0.383911	0.000305176	
1.07269	0.384827	0.000305176	
1.07269	0.385132	0.000305176	
1.07178	0.385742	0.000457764	
1.07208	0.388489	0.000152588	
1.073	0.389709	0.000152588	
1.07239	0.39093	0.000610352	
1.07208	0.390625	0.000457764	
1.07208	0.393066	0	
1.07269	0.393982	0.00137329	
1.07208	0.395203	0.000610352	
1.07178	0.395203	0.000457764	
1.07208	0.395508	0.000457764	
1.07239	0.394592	0.000305176	
1.07239	0.397949	0.000152588	
1.07269	0.39978	0.000305176	
1.07147	0.400391	0.000305176	
1.06781	0.399475	0.000457764	
1.06781	0.400696	-0.000305176	
1.0672	0.399475	0.000915527	
1.0672	0.402832	0.000610352	
1.0672	0.404358	0.000762939	
1.06781	0.404358	0.000305176	
1.06812	0.404968	0.000610352	
1.0675	0.404358	0.000305176	
1.0675	0.404663	0	
1.0675	0.404968	0.000152588	
1.0675	0.405273	0.000457764	
1.06781	0.40741	-0.000305176	
1.0672	0.409546	0.0012207	
1.0675	0.410156	0.000305176	
1.0672	0.409546	0.000305176	
1.0672	0.410156	0.000457764	
1.0672	0.410156	0.000762939	
1.06781	0.409851	0.000762939	
1.0672	0.409241	0.000152588	
1.0675	0.409851	0.000915527	
1.0675	0.410156	0.000305176	
1.06689	0.410767	-0.000152588	
1.0675	0.409546	0.00106812	
1.06781	0.410461	0	
1.0672	0.409546	0	
1.06781	0.410156	0.000457764	
1.0672	0.410156	0.000610352	
1.0672	0.412292	0.000457764	
1.06689	0.413818	0.000152588	
1.06445	0.415039	0.000762939	
1.06262	0.415039	0.000457764	
1.06232	0.415039	0	
1.06232	0.414429	0.00106812	
1.06262	0.414734	0.000305176	
1.06262	0.415039	0.000610352	
1.06232	0.415344	0.000610352	
1.06262	0.415344	0.000305176	
1.06262	0.414429	0.000305176	
1.06293	0.414734	0.000152588	
1.06262	0.414429	0.000457764	
1.06232	0.415039	0.000457764	
1.06293	0.411987	-0.000457764	
1.06232	0.410156	0.000915527	
1.06201	0.409546	0.000152588	
1.06201	0.409546	0.000305176	
1.06232	0.409851	0.000152588	
1.06232	0.410156	0.000457764	
1.06171	0.410156	0.000305176	
1.06232	0.409851	0	
1.06262	0.410461	0.000305176	
1.06262	0.410156	0.000152588	
1.06293	0.409241	-0.000457764	
1.06262	0.410156	0.000915527	
1.06232	0.409546	0.000305176	
1.06232	0.409241	0.000152588	
1.06201	0.409851	0.000610352	
1.05896	0.410156	0.000152588	
1.05682	0.406189	0.000457764	
1.05774	0.405273	0.000305176	
1.05804	0.404358	0.000610352	
1.05743	0.404358	0.000762939	
1.05774	0.404358	-0.000152588	
1.05713	0.405273	0.000915527	
1.05713	0.404968	0.000152588	
1.05743	0.404358	0.000305176	
1.05682	0.405884	0.000305176	
1.05743	0.404358	0.000610352	
1.05743	0.401917	0.000152588	
1.05804	0.400391	0.000305176	
1.05713	0.39978	0.000457764	
1.05743	0.399475	0.000610352	
1.05743	0.399475	-0.000152588	
1.05743	0.400391	0.0012207	
1.05743	0.400391	0.000762939	
1.05743	0.396729	0.000610352	
1.05743	0.395813	0.000457764	
1.05774	0.395508	0.000152588	
1.05774	0.394897	0.000152588	
1.05804	0.395813	0.000610352	
1.05713	0.394592	0.000305176	
1.05743	0.395508	0.000152588	
1.05743	0.392151	-0.000457764	
1.05682	0.391235	0.000762939	
1.05682	0.390625	0.000457764	
1.05743	0.39032	0.000610352	
1.05774	0.390625	0.000152588	
1.05743	0.387573	-0.000152588	
1.05774	0.385742	0.000457764	
1.05743	0.385437	0.000457764	
1.05774	0.386353	0.000152588	
1.05682	0.385132	0.000305176	
1.05682	0.384827	-0.000457764	
1.05713	0.38208	0.00106812	
1.05713	0.380859	0.000305176	
1.05743	0.379639	0.000305176	
1.05713	0.381165	0.000457764	
1.05682	0.380249	0.000457764	
1.05713	0.377502	0.000915527	
1.05804	0.375977	0.000457764	
1.05774	0.375366	0.000305176	
1.05713	0.375366	0.000762939	
1.05774	0.375366	-0.000152588	
1.05774	0.37323	0.000915527	
1.05743	0.370789	0.000457764	
1.05743	0.370789	0.000152588	
1.05774	0.371399	0.000152588	
1.05591	0.368042	0.00106812	
1.05042	0.366211	0.000457764	
1.04797	0.366211	0.000610352	
1.04828	0.366211	0.000305176	
1.04736	0.366211	0.000610352	
1.04736	0.362549	-0.000152588	
1.04736	0.361633	0.000915527	
1.04736	0.361328	0.000152588	
1.04767	0.360413	0.000305176	
1.04736	0.358276	0.000152588	
1.04797	0.35675	0.000457764	
1.04767	0.356445	0.000305176	
1.04797	0.35553	0.000152588	
1.04767	0.353088	0.000152588	
1.04736	0.350952	0.000305176	
1.04797	0.350952	-0.000152588	
1.04736	0.350952	0.000762939	
1.04797	0.34729	0.000762939	
1.04767	0.34668	0.000457764	
1.04706	0.345764	0.000305176	
1.04706	0.346375	0	
1.04767	0.343628	0.000610352	
1.04767	0.341797	0.000305176	
1.04858	0.341492	0.000152588	
1.04706	0.340271	0	
1.0437	0.338135	-0.000457764	
1.04279	0.336609	0.00106812	
1.04279	0.336304	0.000305176	
1.04248	0.335999	0.000305176	
1.04309	0.333557	0.000305176	
1.04309	0.331421	0.000457764	
1.04248	0.331116	0.000305176	
1.04248	0.331421	0.000610352	
1.04309	0.329285	0.000457764	
1.04279	0.326233	0.000305176	
1.04218	0.325623	-0.000305176	
1.04279	0.323792	0.00106812	
1.04279	0.32196	0.000152588	
1.04279	0.321045	0	
1.04218	0.321045	-0.000152588	
1.04309	0.318604	0.000457764	
1.04309	0.317383	0.000152588	
1.04218	0.316162	0.000457764	
1.04309	0.314331	0.000610352	
1.04279	0.3125	0.000762939	
1.04279	0.31189	-0.000152588	
1.04218	0.31189	0.00106812	
1.04279	0.309448	0.000610352	
1.04248	0.307617	0.000305176	
1.04248	0.307312	0.000305176	
1.04248	0.304565	0.000305176	
1.04248	0.302734	0.000457764	
1.04218	0.302124	0	
1.04248	0.301819	0.000457764	
1.0437	0.299683	0.000457764	
1.04279	0.297241	-0.000305176	
1.04279	0.297546	0.000915527	
1.04218	0.293884	0.000610352	
1.04248	0.292969	0.000610352	
1.04156	0.292358	0.000305176	
1.03851	0.291748	-0.000305176	
1.0376	0.289001	0.000457764	
1.0376	0.287476	0.000305176	
1.0376	0.287476	0.000152588	
1.0379	0.284424	0	
1.03821	0.282593	-0.000305176	
1.03851	0.282898	0.000762939	
1.03699	0.280151	0.000152588	
1.0379	0.27832	0.000152588	
1.03729	0.27771	0.000305176	
1.0379	0.27771	0.000305176	
1.03729	0.274658	0.000610352	
1.0379	0.272827	0.000305176	
1.03729	0.273132	0.000457764	
1.0376	0.270081	0.000305176	
1.0379	0.267639	0	
1.03729	0.267639	0.00106812	
1.03424	0.264587	0.000152588	
1.03333	0.263672	0	
1.03241	0.263062	0	
1.03241	0.263062	0	
1.03241	0.259399	0.000305176	
1.03271	0.257874	0.000457764	
1.03241	0.257874	0.000610352	
1.0321	0.254822	0.000457764	
1.03241	0.253296	0	
1.03302	0.252991	0.0012207	
1.03271	0.250549	0.000457764	
1.03241	0.249023	0.000305176	
1.03271	0.248108	0.000305176	
1.03241	0.248108	0.000152588	
1.0321	0.245361	0	
1.03241	0.243835	0	
1.0321	0.24292	0.000457764	
1.03271	0.239868	0	
1.03241	0.238647	-0.000305176	
1.0321	0.238647	0.000915527	
1.03302	0.235901	0.000762939	
1.03271	0.234375	0.000610352	
1.0321	0.233154	0.000457764	
1.03271	0.230103	0.000152588	
1.03271	0.228577	0	
1.03271	0.229187	0.000610352	
1.03271	0.228271	0	
1.0318	0.22583	0.000152588	
1.02936	0.224304	-0.000305176	
1.02844	0.223389	0.000610352	
1.02814	0.220032	0.000305176	
1.02783	0.219116	0.000305176	
1.02844	0.218506	0.000457764	
1.02783	0.215454	0.000610352	
1.02783	0.213928	0.000610352	
1.02783	0.213928	0.000457764	
1.02844	0.211182	0.000457764	
1.02783	0.209351	0.000305176	
1.02722	0.20874	-0.000305176	
1.02783	0.20874	0.000915527	
1.02783	0.206299	0.000305176	
1.02753	0.203857	0.000152588	
1.02783	0.204468	0.000457764	
1.02753	0.201111	0.000457764	
1.02753	0.19928	0.000152588	
1.02783	0.19928	0.000305176	
1.02814	0.196533	0.000610352	
1.02753	0.194092	0.000457764	
1.02753	0.194092	0	
1.02814	0.194397	0.00137329	
1.02814	0.190735	0.000610352	
1.02814	0.189514	0.000457764	
1.02783	0.188904	0	
1.02814	0.186768	0	
1.02783	0.184326	-0.000152588	
1.02722	0.184021	0.000305176	
1.02814	0.180969	0.000305176	
1.02783	0.179443	0.000457764	
1.02783	0.179443	-0.000610352	
1.02783	0.179138	0.000915527	
1.02783	0.176697	0.000610352	
1.02753	0.175171	0.000610352	
1.02783	0.174561	0.000305176	
1.02753	0.171814	0	
1.02844	0.169373	0.000457764	
1.02875	0.169067	0.000305176	
1.02783	0.169678	0.000305176	
1.02814	0.167236	0.000152588	
1.02753	0.1651	-0.000610352	
1.02814	0.164795	0.00106812	
1.02844	0.162048	0.000457764	
1.02783	0.159607	0	
1.02692	0.158997	0.000305176	
1.02417	0.159607	0.000305176	
1.02295	0.15686	0.000610352	
1.02295	0.15564	0.000610352	
1.02295	0.155334	0.000152588	
1.02295	0.152283	0.000305176	
1.02295	0.150757	-0.000152588	
1.02325	0.150146	0.0012207	
1.02295	0.150757	0.000152588	
1.02264	0.1474	0	
1.02264	0.145569	0.000152588	
1.02356	0.144958	0.000457764	
1.02325	0.142517	0.000457764	
1.02295	0.140686	0.000152588	
1.02234	0.140381	0.000152588	
1.0199	0.140686	0.000610352	
1.01868	0.138245	0	
1.01776	0.135803	0.0012207	
1.01746	0.135193	0	
1.01837	0.135498	0.000152588	
1.01807	0.132141	0.000915527	
1.01807	0.130005	-0.000152588	
1.01837	0.13031	0.000152588	
1.01837	0.130615	0.000457764	
1.01776	0.128479	0.000305176	
1.01807	0.126038	0.000152588	
1.01837	0.125732	-0.000457764	
1.01776	0.122681	0.000915527	
1.01746	0.120544	0.000305176	
1.01776	0.12085	0.000610352	
1.01837	0.120544	0.000457764	
1.01776	0.117493	0.000305176	
1.01807	0.115967	0.000457764	
1.01837	0.115356	0.000457764	
1.01776	0.115662	0.000152588	
1.01807	0.116272	0.000305176	
1.01746	0.112915	-0.000610352	
1.01837	0.111084	0.00106812	
1.01868	0.110779	0.000457764	
1.01837	0.110779	-0.000152588	
1.01746	0.108337	0.000457764	
1.01776	0.106201	0.000305176	
1.01807	0.105591	0.000457764	
1.01807	0.105896	0.000152588	
1.01776	0.102539	0.000152588	
1.01868	0.101013	0.000305176	
1.01746	0.101013	-0.000457764	
1.01471	0.100708	0.00106812	
1.01318	0.0982666	0.000152588	
1.01288	0.0964355	0	
1.01288	0.0958252	0.000305176	
1.01257	0.09552	0.000305176	
1.01318	0.0961304	0.000610352	
1.01349	0.0933838	0.000305176	
1.01349	0.0912476	0.000610352	
1.01288	0.0912476	0.000457764	
1.01257	0.0912476	-0.000152588	
1.01288	0.0915527	0.00106812	
1.01318	0.0881958	0.000762939	
1.01318	0.0860596	0.000152588	
1.01349	0.0863647	0.000305176	
1.01288	0.0866699	0.000152588	
1.01318	0.0842285	0.000610352	
1.01318	0.0814819	0.000305176	
1.01318	0.0808716	0.000152588	
1.01318	0.0808716	0.000152588	
1.01227	0.0811768	-0.000457764	
1.01288	0.0790405	0.00106812	
1.01318	0.0778198	0.000762939	
1.01288	0.0772095	0.000305176	
1.01349	0.0772095	0.000457764	
1.01288	0.0775146	0.000762939	
1.01257	0.0765991	0.000152588	
1.01318	0.0741577	0.000305176	
1.01379	0.0726318	0.000152588	
1.01318	0.0723267	0	
1.01257	0.0717163	-0.000457764	
1.01349	0.0720215	0.000915527	
1.01318	0.0692749	0.000152588	
1.01257	0.067749	0.000152588	
1.00952	0.067749	0.000762939	
1.0083	0.0671387	0.000457764	
1.0083	0.0674438	0.000457764	
1.0083	0.0668335	0.000457764	
1.00891	0.0643921	0.000610352	
1.0083	0.062561	0.000305176	
1.0083	0.0622559	-0.000305176	
1.008	0.0628662	0.00106812	
1.008	0.0619507	0.000305176	
1.0083	0.0619507	0.000152588	
1.0083	0.0598145	0.000762939	
1.0083	0.057373	0	
1.00861	0.057373	0.000152588	
1.0083	0.057373	0.000457764	
1.00861	0.0585938	0.000457764	
1.008	0.0576782	0.000305176	
1.00861	0.0546265	-0.000152588	
1.00739	0.0527954	0.000915527	
1.008	0.0527954	0.000610352	
1.00769	0.0524902	0.000305176	
1.008	0.0527954	0.000457764	
1.008	0.0531006	0.000305176	
1.0083	0.0524902	0	
1.008	0.0491333	0.000457764	
1.00861	0.0482178	0.000457764	
1.0083	0.0479126	0.000305176	
1.008	0.0473022	-0.000152588	
1.00861	0.0473022	0.000915527	
1.008	0.0482178	0.000610352	
1.00769	0.045166	0.000457764	
1.008	0.043335	0.000610352	
1.008	0.0427246	0.000457764	
1.00708	0.0430298	0.000610352	
1.00433	0.0430298	0	
1.00342	0.0424194	0.000305176	
1.00342	0.0436401	0.000152588	
1.00281	0.0427246	-0.000305176	
1.00281	0.0405884	0.00137329	
1.00311	0.0384521	0.000305176	
1.00281	0.0372314	0.000305176	
1.00342	0.0375366	0.000610352	
1.00281	0.0372314	0.000152588	
1.00311	0.0378418	0.000457764	
1.00372	0.0372314	0.000152588	
1.00342	0.0350952	0.000457764	
1.00311	0.0332642	0.000305176	
1.00281	0.0332642	-0.000457764	
1.00372	0.0326538	0.000915527	
1.00342	0.0326538	0.000305176	
1.0025	0.0326538	-0.000152588	
1.00342	0.032959	0.000457764	
1.00342	0.0332642	0.000305176	
1.00311	0.0326538	0.000762939	
1.00342	0.0305176	0	
1.00281	0.0283813	0.000457764	
1.00342	0.0271606	0.000610352	
1.00311	0.0274658	0	
1.00311	0.027771	0.00106812	
1.00311	0.0283813	0.000305176	
1.0025	0.0286865	0.000610352	
1.00311	0.0280762	0.000610352	
1.00342	0.0280762	0.000610352	
1.00372	0.0247192	-0.000152588	
1.00281	0.0238037	0.000152588	
1.00311	0.0231934	0.000152588	
1.00311	0.0231934	0.000457764	
1.00281	0.0238037	-0.000152588	
1.0025	0.0231934	0.00106812	
0.999756	0.0234985	0.000610352	
0.998535	0.0231934	0.000305176	
0.99823	0.0231934	0.000457764	
0.99823	0.0201416	0.000152588	
0.998535	0.0180054	0	
0.997925	0.0195313	0.000457764	
0.997925	0.0183105	0.000457764	
0.99823	0.0183105	0.000610352	
0.99823	0.0183105	-0.000305176	
0.997925	0.0183105	0.00106812	
0.998535	0.0180054	0.000152588	
0.99823	0.0186157	0.000457764	
0.998535	0.0186157	0.000305176	
0.99823	0.0183105	0.000457764	
0.99823	0.0161743	0.000457764	
0.998535	0.0137329	0.000305176	
0.998535	0.0140381	0.000457764	
0.99823	0.0134277	0.000457764	
0.99823	0.0128174	-0.000305176	
0.998535	0.0131226	0.0012207	
0.99823	0.0134277	0.000457764	
0.997925	0.0131226	0.000305176	
0.99823	0.0134277	0.000152588	
0.99823	0.0134277	0.000305176	
0.99823	0.0134277	0	
0.99823	0.010376	0.000152588	
0.99823	0.00823975	0.000762939	
0.99823	0.00823975	0.000762939	
0.998535	0.00762939	0	
0.997925	0.00823975	0.00106812	
0.997925	0.00823975	0.000152588	
0.997925	0.00854492	0.000762939	
0.997925	0.0088501	0.000457764	
0.99823	0.00762939	0.000305176	
0.99823	0.0088501	0.000152588	
0.99823	0.00823975	-0.000152588	
0.99762	0.00823975	0.000305176	
0.998535	0.00854492	0.000152588	
0.997925	0.00579834	-0.000152588	
0.997925	0.00366211	0.00106812	
0.997925	0.00335693	0.000457764	
0.998535	0.00335693	0.000610352	
0.997925	0.00335693	0.000762939	
0.994873	0.00366211	0.000305176	
0.993652	0.00335693	0.000610352	
0.993347	0.00366211	0.000152588	
0.993652	0.00366211	0.000457764	
0.993347	0.00335693	0.000152588	
0.992737	0.00366211	-0.000457764	
0.993652	0.00305176	0.000762939	
0.993347	0.00396729	0.000152588	
0.993042	0.00335693	0	
0.993347	0.000915527	0.000457764	
0.993042	-0.000610352	0.000457764	
0.993347	-0.0012207	0.000610352	
0.993042	-0.000915527	0.000305176	
0.993042	-0.000915527	0.000457764	
0.993347	-0.000915527	0.000305176	
0.993347	-0.00152588	-0.000152588	
0.993042	-0.0012207	0.0012207	
0.992432	-0.0012207	0.000152588	
0.992432	-0.00152588	0.000152588	
0.993042	-0.000610352	0.000610352	
0.992737	-0.00152588	0.000457764	
0.993042	-0.000915527	0.000305176	
0.993347	-0.00152588	0.000457764	
0.993347	-0.0012207	0.000152588	
0.993042	-0.00152588	0.000610352	
0.993042	-0.00396729	-0.000152588	
0.993652	-0.00640869	0.0012207	
0.992737	-0.00640869	0.000305176	
0.993347	-0.00549316	0.000152588	
0.993042	-0.00549316	0.000762939	
0.993042	-0.00579834	0.000305176	
0.993347	-0.00549316	0.000152588	
0.992737	-0.00610352	0	
0.993347	-0.00610352	-0.000152588	
0.993652	-0.00610352	0.000152588	
0.992432	-0.00579834	-0.000305176	
0.989075	-0.00640869	0.00106812	
0.988464	-0.00579834	0.000610352	
0.988159	-0.00549316	0.000610352	
0.988464	-0.00640869	0.000457764	
0.988159	-0.00640869	0.000457764	
0.987854	-0.00610352	0.000305176	
0.988159	-0.00579834	0.000305176	
0.98877	-0.0088501	0.000305176	
0.988464	-0.010376	0	
0.989075	-0.0109863	-0.000610352	
0.98877	-0.010376	0.0012207	
0.988159	-0.0112915	0.000152588	
0.987244	-0.0112915	0	
0.987854	-0.0109863	0.000915527	
0.988159	-0.0106812	0.000305176	
0.988159	-0.010376	0.000915527	
0.988159	-0.0106812	0.000305176	
0.988159	-0.0109863	0.000305176	
0.98877	-0.010376	0.000305176	
0.987549	-0.0115967	0	
0.98877	-0.0115967	0.000915527	
0.98877	-0.0106812	0.000152588	
0.988464	-0.0106812	0	
0.988159	-0.0109863	0.000457764	
0.988464	-0.0106812	0.000305176	
0.988464	-0.0109863	0.000305176	
0.988159	-0.0109863	0.000305176	
0.988464	-0.0112915	0.000457764	
0.988159	-0.0140381	0.000457764	
0.988464	-0.0158691	0	
0.987854	-0.015564	0.0012207	
0.988159	-0.0161743	0.000152588	
0.988159	-0.015564	0.000152588	
0.988464	-0.0158691	0.000915527	
0.98877	-0.0161743	0.000305176	
0.988464	-0.0161743	0	
0.988159	-0.0161743	0.000305176	
0.988464	-0.0164795	0.000610352	
0.988464	-0.0158691	0.000305176	
0.988464	-0.015564	-0.000152588	
0.988159	-0.0149536	0.000915527	
0.988159	-0.0158691	0.000610352	
0.988464	-0.015564	0.000305176	
0.988159	-0.015564	0.000457764	
0.988464	-0.0152588	0.000152588	
0.988464	-0.0161743	0.000457764	
0.988159	-0.0158691	0.000305176	
0.988464	-0.0161743	0.000610352	
0.987854	-0.0152588	0.000305176	
0.988464	-0.015564	-0.000457764	
0.988464	-0.0158691	0.0012207	
0.988464	-0.0164795	0.000152588	
0.988464	-0.0161743	0.000457764	
0.987549	-0.0186157	0.000457764	
0.984497	-0.0210571	0.000610352	
0.983887	-0.0210571	0.000457764	
0.983887	-0.0213623	0.000457764	
0.983582	-0.0210571	0.000305176	
0.983582	-0.020752	0.000610352	
0.984192	-0.0213623	-0.000152588	
0.982971	-0.0204468	0.00106812	
0.983276	-0.0213623	0	
0.983276	-0.0210571	-0.000152588	
0.983276	-0.0201416	0.000305176	
0.983887	-0.0204468	0.000457764	
0.984192	-0.020752	0.000457764	
0.983276	-0.0213623	0.000152588	
0.983276	-0.0204468	0.000457764	
0.983887	-0.0213623	0.000305176	
0.983276	-0.020752	-0.000152588	
0.983887	-0.020752	0.0012207	
0.983276	-0.020752	0.000610352	
0.983582	-0.020752	0.000457764	
0.982666	-0.020752	0.000457764	
0.983582	-0.0204468	0.000457764	
0.982971	-0.0213623	0	
0.983582	-0.0213623	0.000152588	
0.983582	-0.0210571	0.000305176	
0.983582	-0.0210571	0.000152588	
0.983582	-0.0234985	0	
0.983887	-0.0259399	0.0012207	
0.983276	-0.0262451	0.000305176	
0.983276	-0.0256348	0.000305176	
0.982971	-0.0259399	0.000305176	
0.982971	-0.0262451	0.000305176	
0.983582	-0.0247192	0.000152588	
0.983887	-0.0265503	0.000610352	
0.983582	-0.0259399	0.000305176	
0.983582	-0.0259399	0.000305176	
0.983887	-0.0256348	-0.000152588	
0.982971	-0.0256348	0.00106812	
0.983582	-0.0259399	0.000305176	
0.983276	-0.0256348	0	
0.983276	-0.0265503	0.000457764	
0.983582	-0.0259399	0.000305176	
0.983582	-0.0250244	0.000610352	
0.983582	-0.0259399	0.000762939	
0.982971	-0.0256348	0.000610352	
0.983276	-0.0262451	0.000610352	
0.983887	-0.0259399	-0.000305176	
0.983582	-0.0256348	0.000762939	
0.982971	-0.0283813	0.000152588	
0.983276	-0.0305176	-0.000152588	
0.983276	-0.0314331	0.000305176	
0.982971	-0.0311279	0.000457764	
0.983276	-0.0311279	0.000152588	
0.982666	-0.0302124	0.000152588	
0.983887	-0.0314331	0.000762939	
0.983582	-0.0305176	0.000305176	
0.983276	-0.0299072	-0.000152588	
0.983276	-0.0308228	0.00106812	
0.983276	-0.0305176	0.000457764	
0.983276	-0.0308228	0.000305176	
0.983582	-0.0299072	0.000457764	
0.983887	-0.0308228	0.000152588	
0.983582	-0.0311279	0.000305176	
0.982056	-0.0305176	0.000152588	
0.980225	-0.0302124	0.000915527	
0.979004	-0.0308228	0.000152588	
0.978088	-0.0299072	-0.000305176	
0.978699	-0.0332642	0.000915527	
0.978088	-0.0354004	0.000762939	
0.979004	-0.0350952	0.000762939	
0.978088	-0.0354004	0.000457764	
0.978699	-0.0354004	0.000152588	
0.979004	-0.0350952	0.000457764	
0.979004	-0.0354004	0	
0.978699	-0.0354004	0.000457764	
0.978394	-0.0354004	0.000152588	
0.977478	-0.0357056	-0.000457764	
0.977783	-0.0350952	0.00106812	
0.978699	-0.0360107	0.000305176	
0.978088	-0.0357056	0.000457764	
0.978394	-0.0354004	0.000457764	
0.979004	-0.0350952	0.000305176	
0.979004	-0.0350952	0.000457764	
0.978394	-0.0387573	0.000152588	
0.978088	-0.039978	0.000457764	
0.978394	-0.0408936	0.000457764	
0.978699	-0.0411987	-0.000152588	
0.978088	-0.0405884	0.0012207	
0.979004	-0.0408936	0.000610352	
0.978699	-0.0405884	0.000457764	
0.978699	-0.0411987	0.000305176	
0.978088	-0.039978	0.000305176	
0.979004	-0.0402832	0.000305176	
0.978699	-0.0411987	0.000152588	
0.978088	-0.0402832	0.000762939	
0.978088	-0.0402832	0.000610352	
0.978699	-0.0402832	-0.000152588	
0.978088	-0.0430298	0.00152588	
0.978394	-0.0445557	0.000610352	
0.977478	-0.0445557	0.000305176	
0.978394	-0.0448608	0.000762939	
0.978699	-0.045166	0.000610352	
0.978088	-0.0457764	0.000152588	
0.978699	-0.0454712	0.000152588	
0.978394	-0.0448608	0.000915527	
0.978394	-0.0448608	0.000457764	
0.978088	-0.045166	-0.000305176	
0.978394	-0.0457764	0.000915527	
0.978394	-0.0454712	0.000305176	
0.978088	-0.045166	0.000457764	
0.978699	-0.045166	0.000457764	
0.978699	-0.0482178	0.000457764	
0.977478	-0.050354	0.000457764	
0.978394	-0.0506592	0.000152588	
0.978088	-0.050354	0.000305176	
0.978699	-0.0506592	0	
0.978394	-0.050354	-0.000305176	
0.979004	-0.0500488	0.0012207	
0.978394	-0.050354	0.000152588	
0.977783	-0.0500488	0.000152588	
0.978394	-0.0506592	0.000152588	
0.978088	-0.0500488	0.000305176	
0.978394	-0.050354	0.000915527	
0.978394	-0.0506592	0.000305176	
0.978088	-0.0527954	0.000762939	
0.978699	-0.0549316	0.000457764	
0.978394	-0.055542	-0.000305176	
0.978088	-0.055542	0.000915527	
0.978699	-0.0552368	0.000457764	
0.979004	-0.055542	0.000152588	
0.978088	-0.0558472	0	
0.977783	-0.0549316	0.000762939	
0.978088	-0.055542	0.000610352	
0.978699	-0.0552368	-0.000152588	
0.978394	-0.0549316	0.000610352	
0.977783	-0.055542	0.000610352	
0.978088	-0.055542	0	
0.977783	-0.0582886	0.00152588	
0.978699	-0.0595093	0.000762939	
0.978394	-0.0604248	0.000305176	
0.977783	-0.0601196	0.000152588	
0.978394	-0.0604248	0.000457764	
0.978088	-0.0604248	0.000305176	
0.978394	-0.06073	0	
0.978394	-0.0598145	0.000610352	
0.978394	-0.0601196	0.000152588	
0.978394	-0.0601196	-0.000152588	
0.978394	-0.0601196	0.00106812	
0.978394	-0.0598145	0.000152588	
0.978394	-0.0595093	0.000610352	
0.978088	-0.0634766	0.000457764	
0.977783	-0.0643921	0.000457764	
0.979004	-0.0650024	0.000610352	
0.978088	-0.0650024	0.000152588	
0.978699	-0.0656128	0.000305176	
0.978088	-0.0650024	0.000305176	
0.978699	-0.0653076	-0.000305176	
0.978699	-0.0646973	0.00106812	
0.978394	-0.0656128	0.000152588	
0.978394	-0.0650024	0.000305176	
0.978088	-0.065918	0	
0.978088	-0.0646973	0.000305176	
0.978699	-0.067749	0.000610352	
0.978088	-0.0692749	0.000305176	
0.977783	-0.0698853	0.000610352	
0.978699	-0.0698853	0.000305176	
0.978699	-0.0698853	-0.000305176	
0.979004	-0.0698853	0.000915527	
0.977783	-0.0701904	0.000152588	
0.978699	-0.0704956	0	
0.979004	-0.0698853	0.000457764	
0.978088	-0.0698853	0.000305176	
0.978394	-0.0698853	0.000457764	
0.978088	-0.0698853	0.000152588	
0.978699	-0.0726318	0.000610352	
0.978088	-0.0747681	0.000610352	
0.978088	-0.0753784	0	
0.977783	-0.0747681	0.0012207	
0.978394	-0.0744629	0.000457764	
0.978088	-0.0744629	0.000457764	
0.978699	-0.0744629	0.000457764	
0.978699	-0.0753784	0.000457764	
0.978699	-0.0750732	0.000305176	
0.979004	-0.0744629	0	
0.978394	-0.0744629	0.000305176	
0.978088	-0.0753784	0.000305176	
0.978088	-0.0772095	-0.000152588	
0.978699	-0.0799561	0.0012207	
0.978088	-0.0790405	0.000457764	
0.978088	-0.0793457	0.000457764	
0.978394	-0.0793457	0.000457764	
0.978699	-0.0796509	0.000305176	
0.978088	-0.0796509	0.000152588	
0.978699	-0.0799561	0	
0.979004	-0.0793457	0.000457764	
0.978699	-0.0799561	0.000305176	
0.978699	-0.0799561	-0.000457764	
0.978394	-0.0796509	0.000915527	
0.978394	-0.0823975	0.000305176	
0.978394	-0.0842285	0.000305176	
0.978088	-0.085144	0.000305176	
0.978699	-0.0845337	0.000457764	
0.978394	-0.0848389	0.000457764	
0.978699	-0.0845337	0.000152588	
0.979004	-0.0839233	0.000610352	
0.978394	-0.0848389	0.000305176	
0.978699	-0.0845337	-0.000305176	
0.979004	-0.0848389	0.0012207	
0.978699	-0.0845337	0.000152588	
0.979004	-0.085144	0.000152588	
0.978699	-0.0881958	0.000305176	
0.978088	-0.088501	0.000457764	
0.979004	-0.0891113	0.000457764	
0.978088	-0.0897217	0.000152588	
0.978088	-0.0894165	0.000457764	
0.978699	-0.0894165	0.000457764	
0.978699	-0.0897217	-0.000152588	
0.978088	-0.0897217	0.000915527	
0.978394	-0.0894165	0.000457764	
0.978088	-0.0894165	0.000457764	
0.978394	-0.0891113	0.000305176	
0.978088	-0.090332	0.000305176	
0.979004	-0.0894165	0.000305176	
0.978088	-0.0930786	0.000457764	
0.978699	-0.0942993	0.000762939	
0.978394	-0.0949097	0.000152588	
0.978394	-0.0939941	-0.000152588	
0.979004	-0.0949097	0.0012207	
0.978088	-0.0939941	0.000305176	
0.978088	-0.0942993	0.000762939	
0.978088	-0.0942993	0.000305176	
0.978394	-0.0939941	0.000610352	
0.979004	-0.0952148	0.000152588	
0.978394	-0.0946045	0.000152588	
0.978088	-0.0949097	0.000305176	
0.978394	-0.0939941	0.000305176	
0.978394	-0.0949097	-0.000457764	
0.978088	-0.0970459	0.00106812	
0.977783	-0.098877	0	
0.978088	-0.100098	0.000305176	
0.979004	-0.0991821	0.000305176	
0.979004	-0.0991821	0.000305176	
0.978394	-0.0991821	0.000457764	
0.978394	-0.0994873	0.000305176	
0.979004	-0.0991821	0.000457764	
0.978699	-0.0991821	0.000610352	
0.978394	-0.0991821	-0.000305176	
0.978699	-0.0997925	0.0012207	
0.979004	-0.0997925	0.000305176	
0.979004	-0.0997925	0.000152588	
0.978699	-0.0991821	0.000610352	
0.978394	-0.098877	0.000610352	
0.978088	-0.102539	0.000152588	
0.978088	-0.10376	0.000610352	
0.978394	-0.10437	0.000610352	
0.979004	-0.104065	0.000762939	
0.977783	-0.10437	-0.000152588	
0.978394	-0.10437	0.000915527	
0.979004	-0.104675	0.000610352	
0.978394	-0.104065	0.000305176	
0.978699	-0.104065	0.000457764	
0.978088	-0.104065	0.000457764	
0.978699	-0.104065	0.000152588	
0.978088	-0.104065	-0.000152588	
0.978394	-0.10437	0.000457764	
0.978394	-0.104675	0	
0.979004	-0.104065	-0.000152588	
0.978088	-0.104065	0.000915527	
0.978394	-0.10437	0.000305176	
0.978394	-0.107117	0.000610352	
0.978394	-0.109253	0.000305176	
0.978088	-0.109253	0.000457764	
0.978699	-0.109863	0.000457764	
0.977783	-0.109253	-0.000152588	
0.978699	-0.109253	0.000457764	
0.979004	-0.109558	0	
0.978394	-0.109558	-0.000457764	
0.977783	-0.108948	0.00106812	
0.978088	-0.109558	0.000305176	
0.978088	-0.108948	0	
0.978088	-0.109253	0.000305176	
0.978394	-0.108643	0.000305176	
0.978088	-0.108643	0.000610352	
0.978394	-0.109253	0.000305176	
0.978088	-0.109253	0.000610352	
0.978699	-0.108337	0.000457764	
0.978394	-0.109558	-0.000305176	
0.978699	-0.109863	0.00106812	
0.978699	-0.112	0.000152588	
0.978088	-0.113831	0.000152588	
0.978699	-0.114441	0.000610352	
0.977783	-0.114136	0.000305176	
0.979004	-0.114441	0.000457764	
0.979004	-0.114136	0.000152588	
0.978394	-0.114746	0.000457764	
0.978088	-0.114441	0.000610352	
0.978699	-0.114136	-0.000152588	
0.978394	-0.113831	0.0012207	
0.978088	-0.113831	0.000457764	
0.979004	-0.114441	0.000610352	
0.982361	-0.113831	0.000457764	
0.982971	-0.113831	0.000305176	
0.983276	-0.113831	0.000305176	
0.983887	-0.113831	0	
0.982971	-0.113831	0.000305176	
0.983276	-0.114136	0.000305176	
0.983887	-0.113831	-0.000305176	
0.983276	-0.114441	0.00106812	
0.983276	-0.114441	0.000457764	
0.983582	-0.114136	0.000762939	
0.983276	-0.116882	0.000457764	
0.983276	-0.118408	0.000305176	
0.983276	-0.118713	0.000457764	
0.983582	-0.118713	0	
0.983887	-0.119324	0.000457764	
0.983582	-0.118713	0	
0.983582	-0.119629	-0.000305176	
0.983582	-0.119019	0.00106812	
0.983887	-0.118408	0.000152588	
0.983582	-0.119324	0.000305176	
0.983276	-0.119019	0.000457764	
0.982971	-0.119019	0.000305176	
0.983276	-0.119324	0.000457764	
0.982971	-0.118713	0.000152588	
0.983276	-0.119019	0.000610352	
0.982971	-0.118103	0.000305176	
0.983887	-0.118713	-0.000305176	
0.983276	-0.118408	0.000762939	
0.983582	-0.119019	0.000305176	
0.983276	-0.119324	0.000305176	
0.983276	-0.119019	0.000152588	
0.982971	-0.119019	0.000610352	
0.983276	-0.118713	0	
0.983276	-0.119019	0.000305176	
0.983276	-0.119324	0.000610352	
0.983887	-0.119019	0.000457764	
0.983887	-0.12146	0	
0.983582	-0.122986	0.0012207	
0.983582	-0.123901	0.000457764	
0.983582	-0.123901	0.000457764	
0.982971	-0.124207	0.000305176	
0.983276	-0.123596	0.000457764	
0.983276	-0.124207	0	
0.982971	-0.123596	0	
0.982971	-0.123901	0.000305176	
0.983276	-0.124207	0.000305176	
0.983276	-0.124512	-0.000457764	
0.983582	-0.123901	0.00106812	
0.986633	-0.124512	0.000610352	
0.988159	-0.123291	0.000762939	
0.98877	-0.123901	0.000457764	
0.988159	-0.123596	0.000610352	
0.988159	-0.124207	0.000610352	
0.988464	-0.124207	0	
0.988159	-0.123901	0.000610352	
0.98877	-0.123901	0.000152588	
0.988464	-0.124207	-0.000457764	
0.98877	-0.123596	0.00106812	
0.988159	-0.124207	0.000457764	
0.987854	-0.123901	0.000762939	
0.987854	-0.123596	0.000457764	
0.987854	-0.123901	0.000457764	
0.988464	-0.123901	0.000762939	
0.988464	-0.124207	0.000457764	
0.988464	-0.123596	0.000610352	
0.987549	-0.124207	0.000457764	
0.988464	-0.124207	-0.000457764	
0.988159	-0.126648	0.00106812	
0.988464	-0.128174	0.000152588	
0.988464	-0.129089	0.000152588	
0.988159	-0.128784	0.000305176	
0.98877	-0.128479	0.000457764	
0.98877	-0.128784	0.000457764	
0.988464	-0.128479	0.000305176	
0.988464	-0.128479	0.000610352	
0.988464	-0.128784	0.000457764	
0.987854	-0.129089	-0.000305176	
0.988159	-0.128479	0.0012207	
0.988464	-0.128479	0.000152588	
0.988159	-0.128784	0.000610352	
0.988159	-0.128784	0.000305176	
0.988464	-0.129089	0.000305176	
0.98877	-0.128479	0.000457764	
0.991211	-0.129089	0.000152588	
0.992432	-0.128174	0.000457764	
0.993958	-0.129089	0.000305176	
0.993347	-0.129395	-0.000610352	
0.992737	-0.128784	0.000915527	
0.992737	-0.129089	0.000305176	
0.993652	-0.128479	0.000762939	
0.993042	-0.128479	0	
0.993652	-0.128784	0.000457764	
0.993958	-0.129089	0.000457764	
0.993958	-0.129395	0.000152588	
0.993347	-0.128479	0.000305176	
0.993958	-0.128784	0.000305176	
0.993347	-0.129089	-0.000457764	
0.993347	-0.129089	0.00106812	
0.993042	-0.1297	0.000152588	
0.993347	-0.129089	0.000305176	
0.993958	-0.128174	0.000610352	
0.993042	-0.128784	0.000762939	
0.992737	-0.129395	0.000762939	
0.993042	-0.128174	0.000305176	
0.992737	-0.129395	0.000457764	
0.992737	-0.129089	0.000457764	
0.993347	-0.129089	0	
0.993347	-0.128174	0.000915527	
0.993347	-0.129395	0	
0.993042	-0.128784	0.000152588	
0.993347	-0.128784	0.000457764	
0.993958	-0.129089	0.000610352	
0.996704	-0.129395	0.000305176	
0.997925	-0.13092	0.000152588	
0.997925	-0.133057	0.000457764	
0.998535	-0.133362	0.000457764	
0.99823	-0.133972	-0.000152588	
0.997925	-0.133362	0.0012207	
0.998535	-0.133362	0.000305176	
0.99823	-0.133667	0.000457764	
0.99823	-0.133972	0.000457764	
0.99823	-0.133667	0.000457764	
0.998535	-0.133972	0.000152588	
0.99884	-0.133972	0.000305176	
0.998535	-0.133972	0	
0.99823	-0.134277	0.000457764	
0.99823	-0.133667	0	
0.998535	-0.133972	0.0012207	
0.99823	-0.133972	0.000457764	
0.99823	-0.133667	0.000610352	
0.99823	-0.133667	0.000762939	
0.998535	-0.134277	0.000152588	
0.99823	-0.134277	0.000457764	
0.99884	-0.133667	0.000305176	
1.00159	-0.133667	0.000305176	
1.00342	-0.133972	0	
1.00342	-0.133667	-0.000305176	
1.00311	-0.133972	0.00106812	
1.00281	-0.133667	0.000305176	
1.00342	-0.133972	0	
1.00311	-0.133057	0.000457764	
1.00372	-0.133972	0.000457764	
1.00342	-0.133972	0.000152588	
1.00311	-0.133362	0.000457764	
1.00342	-0.133362	0.000152588	
1.00342	-0.133667	0.000305176	
1.00342	-0.133667	-0.000152588	
1.00311	-0.133972	0.0012207	
1.00372	-0.133972	0.000305176	
1.00342	-0.134583	0	
1.00342	-0.133667	0.000305176	
1.00311	-0.133362	0.000610352	
1.00342	-0.133972	0.000305176	
1.00311	-0.133057	0.000152588	
1.00311	-0.134277	0.000305176	
1.00311	-0.133972	0.000610352	
1.00403	-0.133667	-0.000305176	
1.00677	-0.133667	0.0012207	
1.0083	-0.133362	0.000457764	
1.008	-0.133362	0	
1.00739	-0.133667	0.000762939	
1.008	-0.133362	0.000152588	
1.00739	-0.133362	0.000152588	
1.008	-0.133667	0	
1.0083	-0.133362	0.000457764	
1.00861	-0.133667	0.000305176	
1.00769	-0.134277	-0.000610352	
1.0083	-0.133972	0.00106812	
1.008	-0.133362	0.000457764	
1.008	-0.133362	0.000305176	
1.00769	-0.133362	0.000610352	
1.00861	-0.133667	0.000305176	
1.0083	-0.133057	0.000457764	
1.0083	-0.133972	0.000305176	
1.0083	-0.133667	0.000152588	
1.00769	-0.133667	0.000305176	
1.0083	-0.133667	-0.000457764	
1.0083	-0.132751	0.000610352	
1.00922	-0.133667	0.000457764	
1.01196	-0.133362	0	
1.01288	-0.133667	0.000152588	
1.01318	-0.134277	0.000610352	
1.01379	-0.133362	0.000457764	
1.01227	-0.133362	0.000610352	
1.01318	-0.133667	0.000457764	
1.01257	-0.133972	0.000457764	
1.01288	-0.133972	-0.000305176	
1.01257	-0.133362	0.00106812	
1.01288	-0.134277	0.000305176	
1.01288	-0.133362	0.000457764	
1.01318	-0.133362	0	
1.01288	-0.133362	0.000457764	
1.01288	-0.133667	0.000457764	
1.01288	-0.133972	0.000305176	
1.01379	-0.133362	0.000305176	
1.01227	-0.133972	0.000305176	
1.01318	-0.133667	-0.000152588	
1.01288	-0.133667	0.00106812	
1.01288	-0.133972	0.000457764	
1.01349	-0.133667	0.000305176	
1.0141	-0.133667	0.000305176	
1.01685	-0.133667	0.000762939	
1.01807	-0.133972	0	
1.01898	-0.134277	0.000305176	
1.01776	-0.133667	0.000457764	
1.01776	-0.133972	0.000305176	
1.01776	-0.133972	-0.000152588	
1.01837	-0.133972	0.000915527	
1.01837	-0.133972	0.000610352	
1.01807	-0.134277	0.000305176	
1.01807	-0.133667	0.000152588	
1.01837	-0.133057	0.000610352	
1.01837	-0.133362	0.000305176	
1.01837	-0.133972	0.000610352	
1.01837	-0.133972	0.000152588	
1.01837	-0.133667	0.000152588	
1.01807	-0.133667	-0.000152588	
1.01837	-0.133667	0.000915527	
1.01807	-0.134277	0.000152588	
1.01837	-0.133667	0.000305176	
1.01929	-0.133972	0	
1.02173	-0.133972	0.000762939	
1.02295	-0.133362	0.000457764	
1.02295	-0.133972	0.000457764	
1.02295	-0.13092	0.000457764	
1.02325	-0.129089	0.000457764	
1.02295	-0.129395	-0.000305176	
1.02325	-0.128479	0.00106812	
1.02386	-0.129089	0.000152588	
1.02356	-0.128479	0.000305176	
1.02295	-0.129089	0	
1.02325	-0.128784	0.000457764	
1.02295	-0.129089	0.000152588	
1.02295	-0.128784	0.000457764	
1.02295	-0.128784	0.000305176	
1.02264	-0.128174	0.000610352	
1.02295	-0.128784	0	
1.02234	-0.128784	0.0012207	
1.02264	-0.129089	0.000762939	
1.02356	-0.129089	0.000305176	
1.02661	-0.128479	0.000457764	
1.02722	-0.129089	0.000457764	
1.02844	-0.128784	0.000152588	
1.02753	-0.128174	0.000305176	
1.02814	-0.128479	0.000305176	
1.02875	-0.128479	0.000152588	
1.02783	-0.128784	-0.000305176	
1.02753	-0.128479	0.00106812	
1.02753	-0.129089	0.000305176	
1.02814	-0.128784	0.000305176	
1.02814	-0.128479	0.000305176	
1.02783	-0.128479	0.000610352	
1.02753	-0.129395	0.000305176	
1.02814	-0.128784	0.000457764	
1.02814	-0.128479	0.000457764	
1.02814	-0.128174	0.000610352	
1.02814	-0.129089	-0.000152588	
1.02783	-0.129089	0.00106812	
1.02844	-0.128784	0.000305176	
1.03119	-0.129089	0.000305176	
1.0321	-0.128784	0.000305176	
1.03271	-0.128784	0.000457764	
1.03302	-0.129089	0.000610352	
1.03241	-0.128784	0.000610352	
1.03333	-0.128479	0.000762939	
1.03302	-0.128784	0.000457764	
1.0321	-0.1297	-0.000305176	
1.03302	-0.128784	0.00106812	
1.03302	-0.128784	0.000305176	
1.0321	-0.128784	-0.000152588	
1.03302	-0.128784	0.000305176	
1.03363	-0.128784	0.000457764	
1.03241	-0.129089	0.000762939	
1.03241	-0.129395	0.000152588	
1.03271	-0.128479	0.000457764	
1.0321	-0.129089	0.000610352	
1.03271	-0.129395	-0.000152588	
1.03394	-0.128784	0.00152588	
1.03668	-0.129089	0.000152588	
1.03729	-0.128784	0.000610352	
1.0379	-0.129395	0.000610352	
1.03821	-0.128479	0.000610352	
1.0379	-0.129089	0.000152588	
1.0376	-0.128174	0.000457764	
1.03851	-0.125427	0.000152588	
1.0379	-0.124207	0	
1.0376	-0.123901	-0.000457764	
1.03821	-0.123901	0.000915527	
1.0379	-0.123901	0.000457764	
1.0379	-0.123901	0.000762939	
1.0379	-0.123291	0.000305176	
1.0376	-0.124207	0.000457764	
1.0376	-0.124512	0.000610352	
1.03821	-0.124207	0.000305176	
1.0379	-0.124512	0.000305176	
1.03821	-0.123901	0.000305176	
1.04095	-0.124512	-0.000305176	
1.04248	-0.123901	0.000915527	
1.04279	-0.123901	0.000152588	
1.0434	-0.124207	0.000457764	
1.04218	-0.124512	-0.000305176	
1.04309	-0.123901	0.000457764	
1.0434	-0.123291	0.000457764	
1.04309	-0.124207	0.000457764	
1.04248	-0.123901	0.000152588	
1.04309	-0.123596	0.000457764	
1.04248	-0.123901	-0.000152588	
1.04309	-0.124207	0.00106812	
1.04309	-0.123596	0.000305176	
1.04248	-0.123901	0	
1.04279	-0.124512	0	
1.04187	-0.124817	0.000457764	
1.0434	-0.123291	0.000457764	
1.04675	-0.124207	0.000457764	
1.04736	-0.124207	0.000457764	
1.04736	-0.123901	0.000457764	
1.04828	-0.123901	-0.000152588	
1.04767	-0.124512	0.00106812	
1.04828	-0.123901	0.000457764	
1.04706	-0.123596	0.000457764	
1.04767	-0.124207	0.000305176	
1.04736	-0.123596	0.000457764	
1.04706	-0.124512	0	
1.04767	-0.124817	0.000152588	
1.04736	-0.123901	0.000305176	
1.04797	-0.123901	0.000305176	
1.04767	-0.124207	-0.000305176	
1.04767	-0.123901	0.000915527	
1.04767	-0.124207	0.000457764	
1.04858	-0.124207	0.000915527	
1.05164	-0.123901	0.000305176	
1.05255	-0.124512	0.000610352	
1.05255	-0.124512	0.000610352	
1.05316	-0.123596	0.000305176	
1.05316	-0.124512	0.000457764	
1.05255	-0.121155	0.000457764	
1.05225	-0.119019	-0.000457764	
1.05286	-0.119324	0.000915527	
1.05286	-0.118713	0.000305176	
1.05225	-0.118408	0.000152588	
1.05255	-0.119324	0.000305176	
1.05225	-0.119019	0.000457764	
1.05286	-0.119629	0.000610352	
1.05286	-0.119324	0.000305176	
1.05316	-0.119019	0.000457764	
1.05286	-0.120544	0.000152588	
1.05347	-0.119324	-0.000152588	
1.05591	-0.119019	0.0012207	
1.05713	-0.119019	0.000305176	
1.05774	-0.119019	0.000152588	
1.05713	-0.119324	0	
1.05682	-0.119324	0.000610352	
1.05774	-0.119019	0.000305176	
1.05774	-0.119019	0.000457764	
1.05774	-0.119324	0.000305176	
1.05774	-0.118713	0.000610352	
1.05774	-0.119629	0	
1.05774	-0.118713	0.00106812	
1.05743	-0.119019	0.000457764	
1.05774	-0.118713	0.000457764	
1.05774	-0.118713	0.000305176	
1.05743	-0.119019	0.000152588	
1.05713	-0.119934	0.000305176	
1.05713	-0.119019	0.000152588	
1.05804	-0.119629	0.000152588	
1.05774	-0.118408	0.000305176	
1.05743	-0.119324	-0.000305176	
1.05774	-0.119019	0.000915527	
1.05835	-0.119324	0.000915527	
1.0614	-0.119019	0.000457764	
1.06232	-0.119934	0.000457764	
1.06293	-0.119324	0.000457764	
1.06232	-0.118713	0.000457764	
1.06293	-0.119629	0.000457764	
1.06384	-0.119019	0.000152588	
1.06354	-0.119324	0.000152588	
1.06628	-0.118408	-0.000457764	
1.06659	-0.119324	0.000762939	
1.0672	-0.119629	0.000457764	
1.0675	-0.119324	0.000305176	
1.0672	-0.119019	0.000305176	
1.06781	-0.119019	0.000610352	
1.0672	-0.119324	0.000457764	
1.0675	-0.119019	0.000457764	
1.0672	-0.118408	0.000457764	
1.0672	-0.119019	0.000457764	
1.0672	-0.119019	-0.000152588	
1.0675	-0.119019	0.000915527	
1.0675	-0.115662	0.000457764	
1.0675	-0.114441	0	
1.06842	-0.114441	0.000152588	
1.07056	-0.11322	0.000305176	
1.07147	-0.114136	0.000152588	
1.07208	-0.114136	0.000457764	
1.07208	-0.113831	0.000610352	
1.07269	-0.114136	0.000457764	
1.07178	-0.113831	-0.000152588	
1.07269	-0.114136	0.000762939	
1.07178	-0.114136	0.000610352	
1.07208	-0.114746	0.000305176	
1.073	-0.114136	0.000152588	
1.073	-0.113525	0	
1.07269	-0.114441	0.000305176	
1.07269	-0.114136	0.000152588	
1.07147	-0.113831	0.000457764	
1.07178	-0.113831	0.000457764	
1.07239	-0.113525	-0.000152588	
1.07269	-0.113525	0.000762939	
1.07269	-0.113525	0.000457764	
1.07208	-0.114136	0.000305176	
1.073	-0.112915	0.000457764	
1.07208	-0.114136	0.000305176	
1.073	-0.114746	0.000457764	
1.07605	-0.114136	0.000305176	
1.07697	-0.11322	0.000457764	
1.07727	-0.114441	0	
1.07697	-0.114441	-0.000457764	
1.07727	-0.113525	0.0012207	
1.07697	-0.113525	0.000152588	
1.07727	-0.114136	0.000305176	
1.07758	-0.114441	0.000305176	
1.07727	-0.113831	0.000457764	
1.07727	-0.113831	0.000762939	
1.07697	-0.114136	0.000610352	
1.07727	-0.113525	0.000610352	
1.07727	-0.114136	0.000305176	
1.07727	-0.113831	-0.000305176	
1.0788	-0.114441	0.00106812	
1.08124	-0.114746	0.000305176	
1.08215	-0.114136	0	
1.08246	-0.114136	0.000305176	
1.08246	-0.113831	0.000457764	
1.08276	-0.114136	0.000305176	
1.08246	-0.113831	0.000457764	
1.08246	-0.11322	0.000305176	
1.08246	-0.113831	0.000915527	
1.08215	-0.114136	-0.000152588	
1.08215	-0.114136	0.00137329	
1.08276	-0.114136	0.000457764	
1.08215	-0.114746	0.000457764	
1.08215	-0.113525	0.000305176	
1.08246	-0.113525	0.000305176	
1.08276	-0.114136	0	
1.08582	-0.114441	0	
1.08704	-0.114136	0.000457764	
1.08673	-0.114746	0.000152588	
1.08734	-0.114441	-0.000305176	
1.08734	-0.114441	0.000762939	
1.08734	-0.111084	0.000457764	
1.08734	-0.109863	0.000457764	
1.08704	-0.108643	0.000457764	
1.08704	-0.108948	0.000610352	
1.08734	-0.109558	0.000152588	
1.08704	-0.108948	0.000305176	
1.08704	-0.108948	0.000610352	
1.08826	-0.109558	0.000152588	
1.08795	-0.109253	-0.000457764	
1.09039	-0.109558	0.000762939	
1.09192	-0.109253	0.000305176	
1.09192	-0.109253	0.000305176	
1.09192	-0.108948	0.000152588	
1.09283	-0.109558	0.000610352	
1.09161	-0.108948	0.000457764	
1.09192	-0.109253	0.000152588	
1.09222	-0.109253	0.000457764	
1.09192	-0.108948	0.000457764	
1.09192	-0.109253	-0.000305176	
1.09314	-0.109253	0.0012207	
1.09558	-0.109253	0.000457764	
1.09558	-0.108948	0	
1.0968	-0.109558	0.000305176	
1.09619	-0.108948	0.000305176	
1.0965	-0.108948	0.000457764	
1.0968	-0.108948	0.000610352	
1.09711	-0.109253	0.000457764	
1.09711	-0.108948	0.000610352	
1.09619	-0.108948	0	
1.09619	-0.106201	0.0012207	
1.0968	-0.104675	0.000305176	
1.09741	-0.104675	0.000457764	
1.10077	-0.104065	0.000457764	
1.10107	-0.10437	0.000305176	
1.10168	-0.10498	0	
1.10077	-0.104065	0.000457764	
1.10199	-0.10437	0.000457764	
1.10107	-0.104675	0.000152588	
1.10199	-0.105591	-0.000305176	
1.10168	-0.10376	0.00106812	
1.10168	-0.10376	0.000457764	
1.10199	-0.104065	0.000762939	
1.10138	-0.10437	0.000457764	
1.10168	-0.10437	0.000762939	
1.10229	-0.101318	0.000305176	
1.10229	-0.0997925	0.000610352	
1.10565	-0.0991821	0.000305176	
1.10718	-0.0991821	-0.000152588	
1.10718	-0.0991821	-0.000762939	
1.10687	-0.0991821	0.00137329	
1.10657	-0.098877	0.000457764	
1.10657	-0.0994873	0.000152588	
1.10596	-0.0994873	0.000305176	
1.10626	-0.0964355	0.000457764	
1.10626	-0.0942993	0.000610352	
1.10687	-0.0939941	0.000457764	
1.10748	-0.0942993	0.000457764	
1.10687	-0.0942993	0.000762939	
1.10657	-0.0942993	-0.000305176	
1.10718	-0.0939941	0.00152588	
1.11023	-0.0949097	0.000152588	
1.11176	-0.0912476	0.000305176	
1.11145	-0.0897217	0.000305176	
1.11206	-0.0900269	0.000457764	
1.11115	-0.0900269	0.000610352	
1.11145	-0.0891113	0.000610352	
1.11176	-0.0894165	0.000152588	
1.11115	-0.0869751	0.000457764	
1.11206	-0.0848389	-0.000305176	
1.11206	-0.0842285	0.00137329	
1.11176	-0.0845337	0.000762939	
1.11084	-0.0848389	0.000610352	
1.11145	-0.0839233	0.000457764	
1.11176	-0.0817871	0.000152588	
1.11145	-0.0805664	0.000457764	
1.11145	-0.0796509	0.000152588	
1.11115	-0.0793457	0.000610352	
1.11267	-0.0799561	0.000305176	
1.11481	-0.0769043	-0.000305176	
1.11633	-0.0753784	0.0012207	
1.11664	-0.0744629	0.000305176	
1.11664	-0.0750732	0.000305176	
1.11664	-0.0723267	0.000457764	
1.11633	-0.0708008	0.000305176	
1.11664	-0.0701904	0.000610352	
1.11633	-0.0701904	0.000305176	
1.11664	-0.0671387	0.000457764	
1.11633	-0.0656128	0	
1.11664	-0.0653076	-0.000457764	
1.11633	-0.0650024	0.00106812	
1.11664	-0.0622559	0.000305176	
1.11694	-0.06073	0.000152588	
1.11969	-0.0601196	0.000457764	
1.12091	-0.057373	0.000610352	
1.12183	-0.055542	0.000457764	
1.12152	-0.0549316	0.000610352	
1.12152	-0.0552368	0.000305176	
1.12152	-0.0521851	0.000305176	
1.12183	-0.0506592	-0.000305176	
1.12213	-0.050354	0.0012207	
1.12122	-0.0479126	0.000305176	
1.12122	-0.045166	-0.000152588	
1.12183	-0.0448608	0.000152588	
1.12183	-0.0430298	0.000610352	
1.12122	-0.0408936	0.000305176	
1.12244	-0.0408936	0.000305176	
1.12579	-0.0369263	0.000610352	
1.1261	-0.0354004	0.000762939	
1.12579	-0.032959	0	
1.1261	-0.0311279	0.00137329	
1.1264	-0.0311279	0.000305176	
1.12732	-0.0280762	0.000152588	
1.1264	-0.0262451	0.000457764	
1.1264	-0.0259399	0.000305176	
1.12701	-0.0222778	0.000457764	
1.1261	-0.0213623	0.000610352	
1.1261	-0.0183105	0.000305176	
1.12671	-0.0161743	0.000152588	
1.1264	-0.0167847	-0.000305176	
1.12671	-0.0131226	0.00106812	
1.12701	-0.0109863	0.000457764	
1.12671	-0.00762939	0.000610352	
1.13037	-0.00640869	0.000610352	
1.13007	-0.00305176	0.000610352	
1.13129	-0.00152588	0.000457764	
1.13159	-0.0012207	0.000152588	
1.13129	0.00152588	0.000305176	
1.13129	0.00244141	-0.000152588	
1.13129	0.00579834	-0.000457764	
1.13098	0.00762939	0.000915527	
1.13098	0.010376	0.000305176	
1.13159	0.0128174	0.000457764	
1.13159	0.0161743	0.000457764	
1.13129	0.0180054	0.000457764	
1.13098	0.020752	0.000305176	
1.13251	0.0228882	0.000762939	
1.13495	0.0259399	0.000305176	
1.13586	0.0280762	0.000762939	
1.13708	0.0311279	-0.000152588	
1.13617	0.0326538	0.0012207	
1.13647	0.0363159	0.000457764	
1.13678	0.0375366	0.000152588	
1.13617	0.0408936	0	
1.13647	0.0424194	0.000762939	
1.13586	0.0454712	0.000305176	
1.13647	0.0476074	0.000610352	
1.13556	0.0500488	0.000457764	
1.13678	0.0531006	0.000457764	
1.13739	0.0552368	-0.000152588	
1.13953	0.0570679	0.0012207	
1.14136	0.0601196	0.000610352	
1.14105	0.0622559	0.000762939	
1.14136	0.0656128	0.000305176	
1.14105	0.0668335	0.000152588	
1.14166	0.0708008	-0.000152588	
1.14136	0.0750732	0.000457764	
1.14136	0.0759888	0.000305176	
1.14105	0.0802612	0.000457764	
1.14227	0.0811768	-0.000305176	
1.14136	0.0842285	0.000915527	
1.14166	0.0860596	0.000457764	
1.14166	0.0897217	0.000762939	
1.14502	0.0915527	0.000457764	
1.14563	0.093689	0.000457764	
1.14563	0.0991821	0	
1.14624	0.100708	0.000457764	
1.14594	0.10437	0.000305176	
1.14594	0.105591	0.000305176	
1.14594	0.108337	-0.000762939	
1.14532	0.110779	0.00106812	
1.14594	0.113831	0.000305176	
1.14624	0.115967	0.000305176	
1.14655	0.119019	0.000152588	
1.14624	0.123291	0.000305176	
1.14685	0.125427	0	
1.1496	0.128479	0.000610352	
1.15112	0.13031	0.000152588	
1.15112	0.133667	0.000152588	
1.15082	0.135803	-0.000152588	
1.15143	0.13855	0.00106812	
1.15112	0.142822	0.000457764	
1.15082	0.144043	0.000152588	
1.15143	0.14801	0.000152588	
1.15143	0.149231	0.000457764	
1.15082	0.152893	0.000152588	
1.15112	0.154724	0.000762939	
1.15234	0.157471	0.000610352	
1.15448	0.162659	0.000610352	
1.15601	0.163879	-0.000152588	
1.15631	0.167236	0.00152588	
1.15601	0.169067	0.000457764	
1.15601	0.172729	0.000610352	
1.15631	0.174561	0.000610352	
1.15631	0.177917	0.000305176	
1.15601	0.181885	0	
1.1557	0.183411	0.000457764	
1.1554	0.186768	0	
1.15601	0.189209	0.000305176	
1.15601	0.192261	-0.000305176	
1.15692	0.193787	0.00106812	
1.15936	0.196838	0.000305176	
1.16119	0.198669	0.000457764	
1.16119	0.202026	0.000305176	
1.16119	0.206299	0.000610352	
1.16119	0.208435	0.000305176	
1.16119	0.211792	0.000305176	
1.16119	0.213623	0.000305176	
1.1615	0.216064	0	
1.16089	0.218201	-0.000152588	
1.16119	0.220947	0.000915527	
1.16119	0.223083	0.000457764	
1.1618	0.226746	0.000457764	
1.16425	0.228271	0.000305176	
1.16547	0.231323	0.000457764	
1.16699	0.233459	0.000457764	
1.16608	0.235901	0.000610352	
1.16577	0.237732	0.000610352	
1.16638	0.240784	0.000610352	
1.16547	0.245667	-0.000305176	
1.16608	0.247498	0.00106812	
1.16608	0.251465	0.000457764	
1.16608	0.252686	0.000152588	
1.16638	0.256042	0.000610352	
1.16974	0.256958	0.000305176	
1.17096	0.259705	0.000305176	
1.17065	0.263062	0.000762939	
1.17065	0.262756	0.000457764	
1.17126	0.265808	0.000457764	
1.17188	0.267639	-0.000152588	
1.17065	0.270691	0.00137329	
1.17096	0.272827	0.000610352	
1.17065	0.275879	0.000305176	
1.17126	0.277405	0.000457764	
1.17157	0.280151	0	
1.17126	0.282593	0.000152588	
1.17401	0.285645	0.000152588	
1.17554	0.28717	0.000457764	
1.17584	0.290833	0.000152588	
1.17493	0.292358	-0.000152588	
1.17584	0.292053	0.000915527	
1.17615	0.29541	0.000762939	
1.17584	0.296936	0.000457764	
1.17584	0.300598	0.000610352	
1.17554	0.301819	0.000305176	
1.17584	0.302734	0.000152588	
1.17676	0.305176	0.000762939	
1.1792	0.307007	0.000305176	
1.18011	0.309753	0.000152588	
1.18042	0.311584	-0.000152588	
1.18103	0.3125	0.000915527	
1.18073	0.314331	0.000305176	
1.18134	0.315857	0.000457764	
1.18164	0.319519	0	
1.18042	0.32074	0.000457764	
1.18042	0.321655	0.000762939	
1.18134	0.324402	0.000915527	
1.18225	0.325928	0.000457764	
1.18378	0.326538	0.000305176	
1.18561	0.32959	-0.000305176	
1.18561	0.331421	0.0012207	
1.1853	0.331726	0.000305176	
1.18469	0.334167	0	
1.18591	0.335693	0.000152588	
1.18591	0.335693	0.000305176	
1.1853	0.339355	0.000457764	
1.185	0.340576	0.000762939	
1.18591	0.341797	0	
1.18652	0.344238	0.000762939	
1.18927	0.344849	-0.000152588	
1.18988	0.346069	0.0012207	
1.19019	0.346069	0.000305176	
1.19141	0.349121	0.000457764	
1.19049	0.350647	0.000152588	
1.19019	0.351868	0.000152588	
1.18988	0.350647	0.000152588	
1.19019	0.353699	0.000457764	
1.1908	0.35553	0.000610352	
1.19049	0.35553	0.000457764	
1.19415	0.35553	-0.000305176	
1.19507	0.358887	0.000915527	
1.19598	0.359802	0.000457764	
1.19629	0.360413	0.000915527	
1.19568	0.361633	0.000457764	
1.19568	0.364075	0.000152588	
1.19568	0.365295	0.000152588	
1.19537	0.365906	0.000610352	
1.19537	0.366211	0.000152588	
1.19629	0.365295	0.000152588	
1.19873	0.368958	-0.000610352	
1.20026	0.371094	0.000915527	
1.20026	0.371094	0.000305176	
1.19995	0.370483	0.000457764	
1.20056	0.371094	0.000457764	
1.19995	0.371094	0.000305176	
1.19995	0.37384	0.000457764	
1.20056	0.375366	0.000762939	
1.20056	0.375366	0.000457764	
1.20087	0.375366	0.000610352	
1.20361	0.375977	-0.000152588	
1.20453	0.375671	0.0012207	
1.20544	0.375366	0.000152588	
1.20544	0.378418	0.000152588	
1.20483	0.379639	0.000305176	
1.20636	0.381165	0.000305176	
1.20514	0.380859	0.000152588	
1.20514	0.380859	0.000762939	
1.20605	0.380859	0.000152588	
1.20911	0.380249	0.000152588	
1.20972	0.380249	-0.000305176	
1.21063	0.380554	0.00106812	
1.21033	0.380859	0	
1.21063	0.380249	0.000305176	
1.21063	0.380554	0.000457764	
1.21033	0.382996	0.000610352	
1.21033	0.384827	0.000152588	
1.21094	0.385132	0.000305176	
1.21399	0.385742	0.000457764	
1.21429	0.384827	0.000305176	
1.21552	0.385742	-0.000457764	
1.2146	0.385132	0.000915527	
1.21521	0.385437	0.000457764	
1.21521	0.385437	0.000610352	
1.21582	0.385742	0.000457764	
1.21521	0.385742	0.000152588	
1.21643	0.385437	0.000305176	
1.21857	0.385437	0.000305176	
1.21948	0.386047	0.000305176	
1.22009	0.385132	0.000305176	
1.2207	0.385437	-0.000457764	
1.21979	0.385742	0.000915527	
1.22101	0.385742	0.000152588	
1.22009	0.385132	0	
1.22101	0.386047	0.000152588	
1.22162	0.385132	0.000305176	
1.22375	0.385742	0.000305176	
1.22498	0.386047	0.000762939	
1.22498	0.385742	0.000457764	
1.22559	0.385742	0.000610352	
1.22559	0.385742	-0.000152588	
1.22589	0.386353	0.00152588	
1.22559	0.38269	0.000457764	
1.22528	0.381165	0.000305176	
1.2262	0.380554	0.000152588	
1.22864	0.380554	0.000457764	
1.23047	0.380554	0.000152588	
1.23047	0.380859	0.000610352	
1.23016	0.380249	0.000305176	
1.23047	0.380554	0.000457764	
1.22955	0.380554	-0.000457764	
1.22925	0.380859	0.00106812	
1.23077	0.380249	0.000305176	
1.23413	0.379944	0.000457764	
1.23444	0.380249	0.000305176	
1.23535	0.377502	0.000457764	
1.23444	0.375366	-0.000152588	
1.23505	0.375977	0.000152588	
1.23474	0.375366	0.000305176	
1.23474	0.375977	0.000152588	
1.23566	0.375366	-0.000305176	
1.23871	0.375366	0.00106812	
1.23993	0.375977	0.000457764	
1.23932	0.37323	0.000457764	
1.24023	0.371399	0.000610352	
1.24054	0.371094	0	
1.24023	0.371399	0	
1.23962	0.371399	0.000305176	
1.24084	0.370178	0.000305176	
1.2439	0.370483	0.000457764	
1.24451	0.367737	-0.000762939	
1.24512	0.366211	0.000915527	
1.24451	0.365601	0.000457764	
1.24512	0.365601	0.000305176	
1.24512	0.366211	0.000152588	
1.24542	0.366211	0.000457764	
1.24512	0.362854	0.000305176	
1.24847	0.361328	0.000915527	
1.25	0.360718	0.000457764	
1.24969	0.361633	0.000305176	
1.24969	0.361023	-0.000152588	
1.24969	0.361023	0.00106812	
1.24969	0.357971	0.000152588	
1.24969	0.356445	0.000305176	
1.25122	0.356445	0	
1.25336	0.355835	0.000457764	
1.25488	0.355835	0	
1.25519	0.353088	0.000457764	
1.25488	0.351563	0.000305176	
1.25519	0.351563	0.000762939	
1.25519	0.350647	0	
1.25397	0.351563	0.00106812	
1.25519	0.347595	0.000305176	
1.25824	0.34668	0.000610352	
1.25885	0.345764	0.000457764	
1.25977	0.345459	0.000305176	
1.25977	0.346069	-0.000152588	
1.25977	0.343018	0.000305176	
1.25977	0.341492	0.000152588	
1.26007	0.341187	0.000457764	
1.26282	0.342102	-0.000305176	
1.26465	0.338745	0.00106812	
1.26465	0.336609	0.000152588	
1.26404	0.336609	0.000610352	
1.26465	0.336304	0	
1.26495	0.335999	0.000457764	
1.26556	0.333862	0	
1.2677	0.332031	0.000305176	
1.26892	0.331726	0.000152588	
1.26984	0.332031	0	
1.26923	0.328369	-0.000610352	
1.26984	0.327148	0.000915527	
1.26953	0.325928	0.000457764	
1.26984	0.326538	0.000457764	
1.26984	0.323486	0.000305176	
1.27228	0.322266	0.000457764	
1.2735	0.32135	0.000305176	
1.27441	0.32135	0.000762939	
1.27319	0.318909	0.000305176	
1.27441	0.316772	0.000915527	
1.27441	0.316772	0	
1.27533	0.316162	0.00106812	
1.27808	0.313721	0.000305176	
1.27899	0.31189	0	
1.2793	0.31189	0.000152588	
1.2796	0.312195	0.000457764	
1.27991	0.309143	0.000457764	
1.2796	0.308228	0.000915527	
1.28052	0.307617	0.000457764	
1.28296	0.306702	0.000610352	
1.28357	0.30426	-0.000152588	
1.28418	0.302124	0.00137329	
1.28448	0.302124	0.000457764	
1.28387	0.299683	0.000610352	
1.28448	0.296936	0.000457764	
1.2851	0.296631	0	
1.28754	0.297241	-0.000152588	
1.28937	0.295105	0.000457764	
1.28937	0.292664	0.000152588	
1.28937	0.291748	0.000305176	
1.28876	0.289917	-0.000152588	
1.28937	0.288086	0.000915527	
1.28937	0.28717	0.000610352	
1.29211	0.286865	0.000305176	
1.29364	0.284424	0.000457764	
1.29395	0.283203	0.000152588	
1.29425	0.282593	0.000305176	
1.29456	0.279846	0.000457764	
1.29456	0.279236	0.000305176	
1.29486	0.278015	0.000305176	
1.29791	0.277405	-0.000305176	
1.29883	0.274963	0.000915527	
1.29852	0.272522	0.000305176	
1.29944	0.273438	0.000305176	
1.29883	0.270081	0.000152588	
1.29974	0.267639	0.000610352	
1.30219	0.267639	0.000305176	
1.30371	0.267944	0.000610352	
1.30371	0.264282	0.000305176	
1.30463	0.263977	0.000305176	
1.30402	0.263062	-0.000152588	
1.30371	0.26001	0.000915527	
1.30463	0.258179	0.000305176	
1.30707	0.257568	0	
1.3089	0.258179	0.000305176	
1.30951	0.254822	0.000762939	
1.3092	0.253296	0	
1.3092	0.252686	0.000457764	
1.30981	0.249939	0.000457764	
1.31256	0.248718	0.000610352	
1.31378	0.248108	-0.000152588	
1.31409	0.244751	0.0012207	
1.31378	0.24353	0.000457764	
1.31409	0.243225	0.000152588	
1.31378	0.24292	0.000610352	
1.3147	0.240784	0.000152588	
1.31744	0.238342	0.000152588	
1.31897	0.238647	0.000457764	
1.31897	0.236206	0.000457764	
1.31897	0.233154	0	
1.31897	0.233154	-0.000610352	
1.31989	0.230408	0.00106812	
1.32202	0.227966	0.000305176	
1.32446	0.228577	0.000610352	
1.32385	0.228271	0.000152588	
1.32324	0.22583	0.000152588	
1.32355	0.223694	0.000305176	
1.32416	0.223694	0.000305176	
1.32446	0.221252	0.000305176	
1.32751	0.219116	0	
1.32874	0.217896	-0.000305176	
1.32843	0.215759	0.000915527	
1.32843	0.214233	0.000152588	
1.32843	0.213623	0.000152588	
1.32996	0.213318	0.000152588	
1.33179	0.210876	0.000610352	
1.33301	0.209045	0.000457764	
1.33362	0.20874	0.000610352	
1.33331	0.206604	0.000152588	
1.33392	0.204163	0.000762939	
1.33362	0.203247	-0.000305176	
1.33453	0.201416	0.00106812	
1.33667	0.198669	0.000457764	
1.3382	0.198669	0.000152588	
1.33881	0.198364	0.000457764	
1.3385	0.196228	0.000457764	
1.33911	0.194702	-0.000152588	
1.33881	0.193787	0.000762939	
1.34186	0.191956	0.000305176	
1.34308	0.189209	0.000457764	
1.34308	0.188599	-0.000152588	
1.34399	0.187073	0.000915527	
1.34338	0.184326	0.000610352	
1.3443	0.183716	0.000457764	
1.34644	0.184326	0.000610352	
1.34766	0.18219	0.000305176	
1.34766	0.180359	0.000152588	
1.34827	0.179443	0.000305176	
1.34796	0.176697	0.000152588	
1.34888	0.175171	0.000457764	
1.35162	0.174255	-0.000152588	
1.35254	0.172119	0.00106812	
1.35315	0.169983	0.000305176	
1.35345	0.169983	0.000457764	
1.35345	0.170288	0.000305176	
1.35345	0.166626	0.000457764	
1.3562	0.164185	-0.000152588	
1.35773	0.1651	0.000305176	
1.35834	0.160217	0.000305176	
1.35834	0.159607	0.000152588	
1.35803	0.160217	-0.000762939	
1.35864	0.159302	0.000915527	
1.35925	0.157166	0.000305176	
1.362	0.155334	0.000152588	
1.36292	0.155029	0.000305176	
1.36292	0.152283	0.000457764	
1.36353	0.150452	0.000152588	
1.36322	0.150757	0.000457764	
1.36353	0.150146	0.000305176	
1.36597	0.147705	0.000610352	
1.36841	0.145264	-0.000152588	
1.3681	0.145569	0.00106812	
1.36841	0.144958	0.000152588	
1.3681	0.142822	0	
1.36871	0.141296	0.000152588	
1.37207	0.139465	0.000457764	
1.37299	0.137329	0.000152588	
1.37329	0.136108	0.000762939	
1.37299	0.135193	0.000152588	
1.37299	0.135803	0.000610352	
1.37299	0.132446	0	
1.37665	0.13092	0.00137329	
1.37787	0.130615	0.000457764	
1.37756	0.130615	0.000457764	
1.37787	0.127563	0.000762939	
1.37817	0.125732	0.000305176	
1.37848	0.125427	0.000152588	
1.38153	0.125732	0.000762939	
1.38214	0.122681	0.000152588	
1.38275	0.121155	0.000762939	
1.38275	0.120544	-0.000610352	
1.38275	0.120239	0.000915527	
1.38367	0.117188	0.000762939	
1.38672	0.116272	0.000610352	
1.38794	0.115356	0.000610352	
1.38824	0.115662	0.000762939	
1.38763	0.11322	0.000152588	
1.38794	0.111694	0.000610352	
1.38855	0.110779	0.000457764	
1.3916	0.110779	-0.000152588	
1.39191	0.108032	-0.000457764	
1.39343	0.105896	0.000762939	
1.39221	0.106201	0.000152588	
1.39282	0.105591	0.000152588	
1.39343	0.103455	0.000305176	
1.39618	0.101318	0.000152588	
1.39771	0.101013	0	
1.3974	0.100708	0.000762939	
1.3974	0.100708	0.000457764	
1.39771	0.0985718	0.000457764	
1.39771	0.0964355	-0.000457764	
1.40137	0.0961304	0.00106812	
1.40228	0.0958252	0.000457764	
1.4035	0.0939941	0.000305176	
1.4032	0.0918579	0.000305176	
1.40228	0.0912476	0.000457764	
1.4035	0.0909424	0.000305176	
1.40564	0.0909424	0.000610352	
1.40686	0.088501	0.000610352	
1.40717	0.0863647	0.000610352	
1.40778	0.0863647	-0.000305176	
1.40808	0.0863647	0.00106812	
1.40778	0.0863647	0.000457764	
1.41113	0.0839233	0.000610352	
1.41205	0.0814819	0.000305176	
1.41235	0.0811768	0.000152588	
1.41266	0.0817871	0.000457764	
1.41205	0.0817871	0.000457764	
1.41327	0.0790405	0.000152588	
1.41602	0.0775146	0.000152588	
1.41693	0.0775146	-0.000152588	
1.41724	0.0775146	0.000915527	
1.41785	0.0765991	0.000457764	
1.41693	0.0747681	0.000610352	
1.41785	0.0726318	0.000457764	
1.4212	0.0723267	0.000610352	
1.42151	0.0717163	0.000152588	
1.42181	0.0726318	0.000610352	
1.42212	0.0726318	0.000305176	
1.42273	0.0692749	0	
1.42334	0.0674438	-0.000305176	
1.42487	0.067749	0.000915527	
1.427	0.0674438	0.000152588	
1.4267	0.0674438	0.000457764	
1.427	0.0674438	0.000305176	
1.42822	0.0646973	0.000457764	
1.43066	0.0631714	0.000305176	
1.43158	0.0628662	0.000915527	
1.43219	0.0619507	0.000305176	
1.43219	0.062561	0.000457764	
1.43188	0.0619507	-0.000305176	
1.43311	0.0598145	0.00106812	
1.43677	0.0582886	0.000457764	
1.43707	0.0579834	0	
1.43738	0.057373	0.000152588	
1.43677	0.057373	0.000305176	
1.43707	0.057373	0.000152588	
1.43768	0.0585938	0.000305176	
1.44043	0.0546265	0.000152588	
1.44135	0.0527954	0.000457764	
1.44196	0.0524902	0	
1.44135	0.0521851	0.00106812	
1.44165	0.0524902	0.000457764	
1.44318	0.0524902	0.000457764	
1.44562	0.0531006	0.000610352	
1.44592	0.0524902	0.000457764	
1.44653	0.0491333	0.000152588	
1.44653	0.0476074	0.000152588	
1.44714	0.0473022	0.000457764	
1.44806	0.0476074	0.000457764	
1.4502	0.0479126	-0.000457764	
1.45172	0.0476074	0.000915527	
1.45203	0.0476074	0.000152588	
1.45294	0.0476074	0.000915527	
1.45172	0.0454712	0.000457764	
1.45264	0.0430298	0.000457764	
1.45538	0.0424194	0.000305176	
1.45721	0.0430298	0.000610352	
1.45752	0.0427246	0.000305176	
1.4566	0.0436401	0.000305176	
1.45691	0.0424194	-0.000457764	
1.45721	0.0424194	0.00106812	
1.45966	0.0424194	0.000305176	
1.46149	0.0402832	0.000152588	
1.46179	0.0375366	0.000305176	
1.46179	0.0372314	0.000305176	
1.46149	0.0372314	0.000457764	
1.4624	0.0375366	0.000610352	
1.46545	0.0375366	0.000457764	
1.46606	0.0375366	0.000610352	
1.46667	0.0378418	-0.000152588	
1.46637	0.0375366	0.0012207	
1.46698	0.0378418	0.000457764	
1.46667	0.03479	0	
1.47003	0.032959	0.000610352	
1.47095	0.032959	0.000305176	
1.47217	0.032959	0.000152588	
1.47156	0.032959	0.000762939	
1.47217	0.0326538	0.000305176	
1.47278	0.0332642	0.000762939	
1.47522	0.032959	0	
1.47644	0.0335693	0.0012207	
1.47614	0.0332642	0.000457764	
1.47675	0.032959	0.000305176	
1.47675	0.0302124	0.000457764	
1.47644	0.0280762	0.000457764	
1.4801	0.0280762	0	
1.48102	0.0280762	0.000305176	
1.48163	0.027771	0.000152588	
1.48193	0.0280762	0.000457764	
1.48132	0.027771	-0.000305176	
1.48224	0.0286865	0.00137329	
1.48468	0.0280762	0.000305176	
1.48621	0.0280762	0.000610352	
1.48621	0.0280762	0.000610352	
1.4859	0.027771	0.000305176	
1.48682	0.0271606	0	
1.48926	0.0256348	0.000457764	
1.49048	0.0234985	0.000457764	
1.49139	0.0231934	0.000305176	
1.49109	0.0234985	-0.000610352	
1.49139	0.0234985	0.00106812	
1.49231	0.0234985	0.000305176	
1.49475	0.0234985	0.000305176	
1.49597	0.022583	0.000305176	
1.49628	0.0228882	0.000305176	
1.49597	0.0234985	0.000457764	
1.49597	0.0231934	0.00106812	
1.49689	0.0228882	0.000762939	
1.49963	0.0231934	0.000610352	
1.50085	0.0228882	-0.000152588	
1.50177	0.0231934	0.000915527	
1.50085	0.020752	0.000305176	
1.50024	0.0183105	0.000152588	
1.50208	0.0189209	0	
1.50482	0.0186157	0.000457764	
1.50574	0.0180054	0.000152588	
1.50635	0.0183105	0.000457764	
1.50604	0.0177002	0.000457764	
1.50604	0.0183105	0.000762939	
1.50635	0.0183105	-0.000152588	
1.51001	0.0192261	0.00106812	
1.51062	0.0183105	0.000305176	
1.51062	0.0180054	0.000457764	
1.51093	0.0183105	0.000457764	
1.51093	0.0183105	0.000305176	
1.51215	0.0183105	-0.000152588	
1.51398	0.0180054	0.000152588	
1.51581	0.0180054	0.000457764	
1.51581	0.0180054	0.000152588	
1.51581	0.0161743	-0.000457764	
1.51611	0.0137329	0.000762939	
1.51703	0.0128174	0.000152588	
1.51917	0.0128174	0.000305176	
1.52039	0.0131226	0.000457764	
1.521	0.0131226	0.000152588	
1.52069	0.0131226	0	
1.521	0.0134277	0.000457764	
1.5213	0.0128174	0.000457764	
1.52405	0.0128174	0.000305176	
1.52527	0.0131226	-0.000457764	
1.52527	0.0131226	0.0012207	
1.52527	0.0134277	0.000305176	
1.52618	0.0134277	0.000305176	
1.52954	0.0131226	0.000305176	
1.53046	0.0125122	0.000305176	
1.53076	0.0137329	0.000305176	
1.53015	0.0137329	0.000610352	
1.53076	0.0131226	0.000610352	
1.53168	0.0137329	0.000305176	
1.53442	0.0134277	-0.000305176	
1.53564	0.0134277	0.00137329	
1.53595	0.0109863	0.000305176	
1.53625	0.0088501	0.000152588	
1.53564	0.00762939	0.000152588	
1.53656	0.00793457	0.000305176	
1.53931	0.00793457	0.000305176	
1.54053	0.00793457	0.000762939	
1.54083	0.00915527	0.000457764	
1.53992	0.00762939	0.000457764	
1.54083	0.00762939	-0.000152588	
1.54083	0.00793457	0.0012207	
1.54144	0.00823975	0.000762939	
1.5448	0.0088501	0.000457764	
1.54541	0.00823975	0.000610352	
1.54602	0.0088501	0.000305176	
1.5451	0.00823975	0.000305176	
1.5451	0.00823975	-0.000152588	
1.54663	0.00823975	0.000305176	
1.54877	0.0088501	0.000305176	
1.5509	0.00793457	-0.000610352	
1.55121	0.00854492	0.000915527	
1.55121	0.00793457	0.000610352	
1.55121	0.00854492	0.000305176	
1.55487	0.0088501	0.000305176	
1.55609	0.00823975	0.000305176	
1.55548	0.00518799	0.000305176	
1.55579	0.00335693	0.000457764	
1.55548	0.00366211	0.000457764	
1.55701	0.00366211	0.000152588	
1.55853	0.00335693	-0.000457764	
1.56036	0.00244141	0.000915527	
1.56067	0.00396729	0.000305176	
1.56097	0.00366211	0.000457764	
1.56006	0.00366211	0.000457764	
1.56067	0.00366211	0.000152588	
1.56342	0.00396729	0.000610352	
1.56494	0.00366211	0.000305176	
1.56525	0.00274658	0.000762939	
1.56494	0.00396729	0.000915527	
1.56586	0.00335693	-0.000152588	
1.5686	0.00366211	0.00106812	
1.57013	0.00366211	0.000457764	
1.57074	0.00335693	0	
1.56982	0.00305176	0.000152588	
1.56982	0.00305176	0.000457764	
1.57074	0.00335693	0.000152588	
1.57379	0.00305176	0.000305176	
1.5744	0.00366211	0.000610352	
1.57501	0.00335693	0.000610352	
1.57532	0.00335693	0	
1.57501	0.00335693	0.00152588	
1.57562	0.000915527	0.000762939	
1.57867	-0.000915527	0.000457764	
1.5799	-0.0012207	0.000305176	
1.5799	-0.0012207	0.000457764	
1.5802	-0.00152588	0.000152588	
1.5802	-0.000915527	0	
1.58386	-0.0012207	0.000610352	
1.58447	-0.0012207	0.000305176	
1.58508	-0.00152588	-0.000457764	
1.58478	-0.000915527	0.00106812	
1.58478	0	0.000305176	
1.58539	-0.00183105	0.000610352	
1.58844	-0.00152588	0.000610352	
1.58936	-0.00152588	0.000457764	
1.59027	-0.000915527	0	
1.58966	-0.0012207	0.000457764	
1.58997	-0.000915527	0.000457764	
1.59363	-0.000915527	0.000152588	
1.59424	-0.000610352	-0.000762939	
1.59454	-0.0012207	0.000915527	
1.59485	-0.000915527	0.000152588	
1.59454	-0.000915527	0.000152588	
1.59515	-0.000610352	0.000152588	
1.59851	-0.000915527	0.000152588	
1.60004	-0.00518799	0.000305176	
1.59973	-0.00518799	0	
1.60004	-0.00579834	0.000610352	
1.60034	-0.00640869	0.000305176	
1.60309	-0.00610352	-0.000152588	
1.60431	-0.00579834	0.00137329	
1.60461	-0.00610352	0.000305176	
1.60492	-0.00640869	0.000457764	
1.60492	-0.00549316	0.000305176	
1.60553	-0.00610352	0.000610352	
1.60858	-0.00671387	0.000152588	
1.60889	-0.00610352	0	
1.61011	-0.00610352	0.000915527	
1.6095	-0.00579834	0.000762939	
1.61011	-0.00610352	0.000152588	
1.61316	-0.00640869	0.00137329	
1.61407	-0.00610352	0.000457764	
1.61438	-0.00549316	0.000457764	
1.61438	-0.00610352	0.000457764	
1.6153	-0.00579834	0.000305176	
1.61835	-0.00640869	0.000152588	
1.61926	-0.00610352	0	
1.61987	-0.00854492	0.000610352	
1.61865	-0.0106812	0.000457764	
1.61896	-0.0115967	-0.000305176	
1.61957	-0.0109863	0.000152588	
1.62354	-0.0109863	0	
1.62445	-0.0106812	0.000610352	
1.62476	-0.0109863	0.000610352	
1.62506	-0.0109863	0.000152588	
1.62537	-0.0115967	0.000152588	
1.6272	-0.0115967	0.000152588	
1.62964	-0.0109863	0.000457764	
1.62994	-0.0106812	0.000305176	
1.62933	-0.0109863	0.000457764	
1.62994	-0.0115967	0.000152588	
1.6333	-0.010376	0.000152588	
1.6333	-0.0112915	0	
1.63422	-0.0119019	-0.000152588	
1.63452	-0.0109863	0.00106812	
1.63422	-0.0131226	0.000457764	
1.63513	-0.0161743	0	
1.63788	-0.0152588	0.000762939	
1.63971	-0.0158691	0.000152588	
1.63879	-0.015564	0.000610352	
1.6394	-0.0158691	0.000610352	
1.64001	-0.0161743	0.000305176	
1.64337	-0.0158691	0.000152588	
1.64368	-0.0164795	-0.000305176	
1.64398	-0.0158691	0.000305176	
1.64368	-0.0158691	0.000457764	
1.64429	-0.015564	0	
1.64795	-0.0164795	0.000305176	
1.64917	-0.0161743	0.000610352	
1.64948	-0.0158691	0.000610352	
1.64886	-0.0161743	0.000457764	
1.64978	-0.0167847	0.000305176	
1.65222	-0.0152588	0.000762939	
1.65344	-0.0161743	0.000457764	
1.65436	-0.0158691	0.000610352	
1.65436	-0.0161743	0.000152588	
1.65375	-0.0158691	0	
1.65497	-0.0158691	0.000305176	
1.65741	-0.0161743	0.000457764	
1.65833	-0.015564	0.000305176	
1.65894	-0.0161743	0.000305176	
1.65863	-0.0158691	0.000305176	
1.66016	-0.015564	0.000610352	
1.6626	-0.0161743	0.000457764	
1.66412	-0.015564	0.000305176	
1.66351	-0.0158691	0.00106812	
1.66321	-0.0213623	0.000305176	
1.66443	-0.0244141	0.000457764	
1.66748	-0.0259399	-0.000152588	
1.6684	-0.0259399	0	
1.66931	-0.0265503	0.000152588	
1.66931	-0.0256348	0.000152588	
1.66992	-0.0256348	0.000457764	
1.67206	-0.0259399	0.000305176	
1.67358	-0.0259399	-0.000457764	
1.67419	-0.0256348	0.000915527	
1.67358	-0.0259399	0.000305176	
1.6745	-0.0253296	0.000610352	
1.67725	-0.0259399	0.000305176	
1.67847	-0.0256348	0.000457764	
1.67908	-0.0292969	0.000457764	
1.67847	-0.0299072	0.000457764	
1.67999	-0.0305176	0.000305176	
1.68213	-0.0308228	0.000457764	
1.68427	-0.0305176	-0.000457764	
1.68335	-0.0305176	0.00106812	
1.68335	-0.0311279	0	
1.68488	-0.0305176	0.00106812	
1.68762	-0.0305176	0.000305176	
1.68823	-0.0302124	0.000610352	
1.68884	-0.0302124	0.000457764	
1.68793	-0.0314331	0.000305176	
1.68945	-0.0308228	0.000457764	
1.69159	-0.0305176	0.000457764	
1.69312	-0.0335693	-0.000152588	
1.69312	-0.03479	0.00106812	
1.69342	-0.0357056	0.000152588	
1.69434	-0.03479	0.000457764	
1.69708	-0.0354004	0.000305176	
1.6983	-0.03479	0.000457764	
1.69861	-0.0350952	0.000305176	
1.698	-0.0357056	0.000457764	
1.69952	-0.0357056	0.000762939	
1.70166	-0.0354004	0.000610352	
1.70349	-0.0350952	-0.000457764	
1.70349	-0.0354004	0.00106812	
1.7038	-0.0357056	0	
1.70441	-0.0378418	0.000457764	
1.70715	-0.0405884	0.000305176	
1.70868	-0.0405884	0.000305176	
1.70868	-0.0415039	0.000457764	
1.70837	-0.0405884	0.000457764	
1.70959	-0.0405884	0.000152588	
1.71173	-0.0402832	0.000152588	
1.71356	-0.0408936	-0.000305176	
1.71387	-0.0415039	0.0012207	
1.71356	-0.0402832	0	
1.71417	-0.0405884	0.000610352	
1.71692	-0.039978	0.000305176	
1.71844	-0.043335	0.000305176	
1.71875	-0.045166	0.000305176	
1.71844	-0.045166	0.000762939	
1.71936	-0.0454712	0	
1.72119	-0.0454712	0.000305176	
1.72363	-0.0454712	-0.000152588	
1.72241	-0.0448608	0.00137329	
1.72302	-0.0448608	-0.000152588	
1.72363	-0.0454712	0.000762939	
1.72729	-0.045166	0.000610352	
1.72821	-0.0448608	0.000915527	
1.72852	-0.045166	0.000305176	
1.72791	-0.0473022	0.000610352	
1.72821	-0.0497437	0.000915527	
1.73126	-0.0506592	0.000305176	
1.73279	-0.0506592	-0.000152588	
1.73279	-0.0509644	0.00106812	
1.73279	-0.0500488	0	
1.7337	-0.0500488	0.000305176	
1.73645	-0.0497437	0.000457764	
1.73737	-0.0506592	0.000610352	
1.73798	-0.050354	0.000457764	
1.73828	-0.050354	0.000610352	
1.73859	-0.0531006	0.000610352	
1.74164	-0.0543213	0.000457764	
1.74194	-0.055542	-0.000305176	
1.74316	-0.0549316	0.00106812	
1.74316	-0.055542	0.000305176	
1.74347	-0.0552368	0.000305176	
1.74561	-0.0552368	0.000457764	
1.74713	-0.0549316	0.000152588	
1.74805	-0.0549316	0.000152588	
1.74805	-0.055542	0	
1.74805	-0.0549316	0.000152588	
1.7514	-0.0552368	0.000152588	
1.75201	-0.0579834	-0.000457764	
1.75262	-0.0604248	0.00137329	
1.75232	-0.0598145	0.000457764	
1.75323	-0.0604248	0.000762939	
1.75568	-0.0604248	0.000610352	
1.7572	-0.0604248	0.000305176	
1.75751	-0.0598145	0.000152588	
1.75751	-0.0604248	0.000457764	
1.75842	-0.0604248	0.000305176	
1.76147	-0.06073	0.000152588	
1.76208	-0.0604248	-0.000305176	
1.763	-0.0631714	0.0012207	
1.76239	-0.0650024	0.000305176	
1.76361	-0.0650024	0.000457764	
1.76605	-0.0653076	0.000762939	
1.76758	-0.0646973	0.000610352	
1.76727	-0.0650024	0.000457764	
1.76758	-0.0650024	0.000305176	
1.7688	-0.0646973	0.000457764	
1.77063	-0.0653076	0.000305176	
1.77246	-0.0653076	-0.000457764	
1.77277	-0.0646973	0	
1.77277	-0.0650024	0	
1.77277	-0.0653076	0.0012207	
1.77551	-0.0683594	0.000457764	
1.77734	-0.0695801	0.000305176	
1.77795	-0.0701904	0.000457764	
1.77795	-0.0698853	0.000610352	
1.77826	-0.0698853	0.000457764	
1.7807	-0.0698853	0.000305176	
1.78223	-0.0695801	0.000305176	
1.78223	-0.0695801	0.000152588	
1.78223	-0.0704956	-0.000457764	
1.78314	-0.0692749	0.0012207	
1.78589	-0.0698853	0	
1.78711	-0.0695801	0.000457764	
1.78772	-0.0735474	0.000152588	
1.78741	-0.0750732	0.000457764	
1.78864	-0.0750732	0	
1.79077	-0.0753784	0.000610352	
1.79199	-0.0750732	0.000152588	
1.79291	-0.0744629	0.000457764	
1.79169	-0.0744629	0	
1.79352	-0.0747681	0.00137329	
1.79535	-0.0750732	0.000305176	
1.79718	-0.0747681	0.000610352	
1.79688	-0.0750732	0.000610352	
1.79749	-0.0750732	0.000152588	
1.7981	-0.0772095	0.000305176	
1.80023	-0.0793457	0.000152588	
1.80237	-0.0796509	0.000305176	
1.80145	-0.0802612	0.000610352	
1.80237	-0.0799561	-0.000457764	
1.80298	-0.0793457	0.0012207	
1.80542	-0.0793457	0.000762939	
1.80725	-0.0796509	0.000762939	
1.80786	-0.0802612	0.000762939	
1.80664	-0.0793457	0.000457764	
1.80786	-0.0799561	0.000457764	
1.8103	-0.0799561	0.000305176	
1.81213	-0.0820923	0.000305176	
1.81244	-0.0836182	0.000152588	
1.81213	-0.0845337	-0.000610352	
1.81244	-0.0842285	0.0012207	
1.81519	-0.0848389	0.000305176	
1.81641	-0.0845337	0.000152588	
1.81702	-0.0845337	0.000457764	
1.81671	-0.0842285	0.000305176	
1.81824	-0.085144	0.000610352	
1.82037	-0.085144	0.000610352	
1.8219	-0.0848389	0.000457764	
1.82251	-0.0845337	0.000457764	
1.82159	-0.0842285	-0.000457764	
1.82251	-0.0869751	0.00137329	
1.82526	-0.0894165	0.000457764	
1.82648	-0.0891113	0	
1.82648	-0.0900269	0.000305176	
1.82709	-0.0894165	0.000152588	
1.83044	-0.0897217	0	
1.83167	-0.0894165	0.000457764	
1.83167	-0.0891113	0.000610352	
1.83197	-0.0897217	0.000610352	
1.83228	-0.0900269	-0.000457764	
1.83472	-0.0894165	0.00106812	
1.83624	-0.0897217	0.000305176	
1.83685	-0.0894165	0.000762939	
1.83685	-0.0897217	0.000305176	
1.83746	-0.0894165	0.000457764	
1.8399	-0.0924683	0.000152588	
1.84113	-0.093689	0.000152588	
1.84143	-0.0949097	0.000305176	
1.84235	-0.0949097	0.000457764	
1.84235	-0.0946045	-0.000457764	
1.84479	-0.0939941	0.0012207	
1.84631	-0.0946045	0.000610352	
1.84631	-0.093689	0.000610352	
1.84662	-0.0946045	0.000305176	
1.84692	-0.0946045	0.000457764	
1.85059	-0.0949097	0.000762939	
1.8512	-0.0946045	0.000305176	
1.8512	-0.0946045	0.000762939	
1.85181	-0.0939941	0.000305176	
1.85211	-0.0942993	-0.000457764	
1.85516	-0.0942993	0.00106812	
1.85638	-0.0970459	0.000305176	
1.8576	-0.098877	0.000152588	
1.85608	-0.0994873	0.000152588	
1.8576	-0.0985718	0.000610352	
1.85974	-0.0994873	0.000457764	
1.86157	-0.0991821	0.000305176	
1.86218	-0.0991821	0.000610352	
1.86035	-0.0994873	0	
1.86127	-0.0991821	-0.000305176	
1.86523	-0.0994873	0.00106812	
1.86646	-0.098877	0.000305176	
1.86646	-0.0985718	0.000152588	
1.86646	-0.0994873	0.000152588	
1.86737	-0.0997925	0.000305176	
1.87012	-0.0985718	0.000305176	
1.87164	-0.0994873	0.000152588	
1.87134	-0.0991821	0.000152588	
1.87164	-0.0994873	0.000305176	
1.87225	-0.0991821	-0.000610352	
1.87439	-0.0994873	0.00137329	
1.87592	-0.101624	0.000610352	
1.87592	-0.103455	0.000457764	
1.87561	-0.10376	0.000305176	
1.87714	-0.10437	0.000610352	
1.87988	-0.10376	0.000457764	
1.88171	-0.104065	0.000152588	
1.88141	-0.105286	0.000152588	
1.8811	-0.104065	0.000610352	
1.88171	-0.104675	-0.000305176	
1.88171	-0.104675	0.000610352	
1.88477	-0.10437	0.000305176	
1.88538	-0.104675	0.00106812	
1.88599	-0.10376	0.000610352	
1.88629	-0.104065	0.000457764	
1.88629	-0.104675	0.000610352	
1.88965	-0.104065	0.000152588	
1.89087	-0.10437	0.000610352	
1.89117	-0.104065	0.000305176	
1.89026	-0.10437	-0.000305176	
1.89178	-0.10437	0.000457764	
1.89484	-0.104065	-0.000457764	
1.89575	-0.10437	0.000152588	
1.89636	-0.10437	0.000457764	
1.89606	-0.104675	0.000305176	
1.89636	-0.104675	0.000457764	
1.89941	-0.10437	0.000610352	
1.90094	-0.104675	0.000610352	
1.90094	-0.10437	0.000152588	
1.90094	-0.10437	0.000152588	
1.90125	-0.104675	0.000457764	
1.90399	-0.104065	0	
1.9046	-0.10437	0	
1.90552	-0.10498	0.000305176	
1.90552	-0.104675	0.000305176	
1.90643	-0.104675	0.000152588	
1.90979	-0.104675	0.000610352	
1.9101	-0.104065	0.00106812	
1.91132	-0.106812	0.000457764	
1.91101	-0.108948	0.000457764	
1.91132	-0.108948	0.000457764	
1.91345	-0.109558	0.000457764	
1.91589	-0.109558	0.000305176	
1.91589	-0.109253	0.000305176	
1.91559	-0.108948	0.000152588	
1.91589	-0.109253	0.000457764	
1.91925	-0.108643	-0.000457764	
1.92047	-0.108948	0.000457764	
1.92078	-0.108643	0.000762939	
1.91986	-0.109253	0.000305176	
1.92108	-0.108948	0.000610352	
1.92413	-0.109253	0.000457764	
1.92566	-0.109253	0.00137329	
1.92474	-0.109253	0.000762939	
1.92505	-0.109253	0.000457764	
1.92596	-0.108032	0.000610352	
1.92932	-0.108643	0.000457764	
1.93085	-0.108948	0.000305176	
1.93085	-0.109253	0.000305176	
1.93085	-0.108643	0.000152588	
1.93054	-0.108948	0.000305176	
1.93115	-0.108948	-0.000305176	
1.93451	-0.109558	0.000915527	
1.93451	-0.108643	0.000610352	
1.93604	-0.108948	0.000152588	
1.93542	-0.108643	0.000457764	
1.93604	-0.111694	0.000610352	
1.93878	-0.11322	0.000457764	
1.94031	-0.114441	0.000305176	
1.94031	-0.114136	0.000152588	
1.94061	-0.114441	0.000762939	
1.94092	-0.114746	-0.000610352	
1.94336	-0.114136	0.00106812	
1.94519	-0.114136	0.000152588	
1.9455	-0.114441	0.000457764	
1.9455	-0.114136	0.000152588	
1.9458	-0.114136	0.000457764	
1.94885	-0.114136	0.000152588	
1.94977	-0.113831	0.000610352	
1.95068	-0.112915	0.000610352	
1.95007	-0.114441	0.000762939	
1.95007	-0.113525	-0.000305176	
1.95099	-0.114136	0.000457764	
1.95465	-0.114136	0.000457764	
1.95435	-0.114441	0.0012207	
1.95496	-0.114441	0.000457764	
1.95526	-0.114136	0.000305176	
1.95526	-0.114136	0.000457764	
1.95862	-0.113525	0.000152588	
1.95984	-0.114441	0	
1.96014	-0.114441	0.000457764	
1.95984	-0.114136	0.000610352	
1.96106	-0.113831	0.000457764	
1.9635	-0.113831	0	
1.96503	-0.114441	0.000610352	
1.96442	-0.114136	0.000610352	
1.96503	-0.114136	0.000762939	
1.96564	-0.113831	0.000457764	
1.96869	-0.113525	0.000915527	
1.9696	-0.114136	-0.000152588	
1.96991	-0.113831	0.000457764	
1.9696	-0.113831	0.000152588	
1.9696	-0.114136	0.000457764	
1.97083	-0.114441	0.000152588	
1.97357	-0.114136	0.000457764	
1.9751	-0.114136	0.000762939	
1.97449	-0.114441	0.000915527	
1.97449	-0.114746	-0.000152588	
1.9751	-0.114441	0.00106812	
1.97845	-0.114136	0.000305176	
1.97937	-0.114136	0.000457764	
1.97968	-0.114136	0.000152588	
1.97998	-0.113831	0.000305176	
1.98029	-0.114441	0	
1.98303	-0.114136	0.000152588	
1.98425	-0.113831	0.000305176	
1.98456	-0.114746	0.000152588	
1.98456	-0.114136	-0.000610352	
1.98456	-0.113525	0.00137329	
1.98486	-0.114136	0.000457764	
1.98883	-0.113525	0.000305176	
1.98914	-0.114136	0.000457764	
1.98914	-0.11322	0.000457764	
1.98975	-0.114136	0.000457764	
1.99005	-0.114441	0.000457764	
1.9928	-0.114441	0.000305176	
1.99493	-0.114136	0	
1.99432	-0.114746	-0.000305176	
1.99402	-0.114746	0.000915527	
1.99432	-0.113525	0.000152588	
1.99524	-0.113831	0.000152588	
1.99799	-0.114441	0.000305176	
1.99921	-0.113525	0.000915527	
1.99951	-0.113525	0.000152588	
1.99951	-0.113831	0.000457764	
2.00012	-0.113831	0.000610352	
2.00378	-0.113831	0.000457764	
2.00409	-0.113831	-0.000152588	
2.0047	-0.113831	0.0012207	
2.00439	-0.114441	0	
2.00439	-0.113831	0.000457764	
2.00531	-0.114136	0.000152588	
2.00806	-0.113831	0.000457764	
2.00867	-0.114441	0.000152588	
2.00928	-0.114136	0.000152588	
2.00928	-0.114441	0.000610352	
2.0108	-0.114136	0.000762939	
2.01294	-0.114136	-0.000152588	
2.01385	-0.113831	0.0012207	
2.01477	-0.113831	0.000152588	
2.01385	-0.114441	0.000457764	
2.01477	-0.114441	0.000610352	
2.01508	-0.113831	0.000152588	
2.01782	-0.114136	-0.000152588	
2.01935	-0.114136	0.000152588	
2.01904	-0.114441	0	
2.01874	-0.113831	0.000152588	
2.01996	-0.113831	-0.000305176	
2.0224	-0.113831	0.00152588	
2.02393	-0.113831	0.000305176	
2.02423	-0.114136	0.000762939	
2.02484	-0.113831	0.000305176	
2.02454	-0.113525	0.000457764	
2.02484	-0.113831	0.000305176	
2.02789	-0.113525	0.000457764	
2.02942	-0.114136	0.000152588	
2.02911	-0.114746	0.000152588	
2.02972	-0.114136	-0.000457764	
2.02972	-0.114136	0.0012207	
2.02972	-0.114441	-0.000152588	
2.03278	-0.113831	0.000457764	
2.03369	-0.114136	0.000305176	
2.03339	-0.113831	0.000915527	
2.034	-0.114136	0.000305176	
2.03339	-0.114136	0.000457764	
2.03461	-0.114136	0.000305176	
2.03735	-0.113831	0.000457764	
2.03857	-0.113831	-0.000457764	
2.03888	-0.114136	0.00106812	
2.03918	-0.113831	-0.000152588	
2.03949	-0.114136	0.000457764	
2.04285	-0.113831	0.000305176	
2.04346	-0.114136	0	
2.04437	-0.113831	0.000457764	
2.04376	-0.113831	0.000152588	
2.04376	-0.113831	0.000762939	
2.04437	-0.113831	0.000762939	
2.04712	-0.114441	-0.000610352	
2.04803	-0.113525	0.0012207	
2.04834	-0.114746	0.000305176	
2.04803	-0.113831	0.000610352	
2.04895	-0.114136	0	
2.04895	-0.113831	0.000152588	
2.052	-0.114441	0.000152588	
2.05353	-0.114136	0.000457764	
2.05414	-0.114441	0.000610352	
2.05353	-0.114136	0.000152588	
2.05383	-0.113831	-0.000152588	
2.05444	-0.114136	0.0012207	
2.05719	-0.114746	0.000305176	
2.05811	-0.113831	0.000610352	
2.05811	-0.113831	0.000457764	
2.05841	-0.113831	0.000762939	
2.05811	-0.114441	0.000457764	
2.05994	-0.111389	0.000305176	
2.06207	-0.109558	0.000305176	
2.06268	-0.109253	0.000305176	
2.0639	-0.109253	-0.000457764	
2.06268	-0.109253	0.0012207	
2.0639	-0.108948	0.000457764	
2.0639	-0.109253	0.000610352	
2.06787	-0.109253	0.000610352	
2.06757	-0.109253	0.000610352	
2.06818	-0.109863	0.000457764	
2.06818	-0.108948	0.000457764	
2.06848	-0.108643	0.000762939	
2.0694	-0.108948	0.000610352	
2.07214	-0.109253	-0.000152588	
2.07336	-0.108948	0.0012207	
2.07306	-0.109253	0	
2.07367	-0.109253	0.000457764	
2.07367	-0.109558	0.000305176	
2.07428	-0.109253	0.000305176	
2.07733	-0.109253	0.000457764	
2.07794	-0.109253	0.000457764	
2.07825	-0.108643	0.000762939	
2.07825	-0.109253	0.000457764	
2.07825	-0.109558	-0.000457764	
2.07886	-0.109253	0.00106812	
2.08191	-0.108948	0	
2.08252	-0.108948	0.000457764	
2.08344	-0.108948	0.000305176	
2.08313	-0.108948	0.000152588	
2.08282	-0.109863	0.000305176	
2.08466	-0.108643	0.000152588	
2.0871	-0.109558	0.000152588	
2.08771	-0.109253	0.000305176	
2.08801	-0.109558	-0.000457764	
2.08832	-0.109558	0.0012207	
2.08801	-0.109253	0.000305176	
2.08771	-0.109253	0.000762939	
2.08893	-0.109558	0.000305176	
2.09167	-0.109253	0.000152588	
2.09259	-0.108948	0.000457764	
2.0929	-0.109253	0.000457764	
2.09351	-0.108948	0.000305176	
2.0932	-0.108948	0.000305176	
2.09412	-0.109253	-0.000305176	
2.09595	-0.108643	0.00106812	
2.09778	-0.106506	0	
2.09808	-0.104065	0.000457764	
2.09808	-0.10376	0.000457764	
2.09808	-0.104065	0.000457764	
2.09808	-0.104065	0.000610352	
2.10114	-0.10376	0.000762939	
2.10297	-0.104675	0.000762939	
2.10327	-0.103455	0.000457764	
2.10266	-0.10437	-0.000152588	
2.10266	-0.104065	0.000915527	
2.10297	-0.104065	0	
2.10358	-0.104675	0.000610352	
2.10693	-0.10437	0.000305176	
2.10785	-0.104065	0.000457764	
2.10754	-0.104065	0.000152588	
2.10846	-0.104675	0.000305176	
2.10815	-0.104065	0.000457764	
2.10876	-0.104065	0.000457764	
2.11151	-0.10437	-0.000457764	
2.11243	-0.10437	0.000915527	
2.11273	-0.104675	0.000152588	
2.11273	-0.104065	0.000762939	
2.11273	-0.10376	0.000305176	
2.11304	-0.10437	0.000152588	
2.11365	-0.10498	0.000152588	
2.11609	-0.103455	0.000457764	
2.117	-0.10437	0.000152588	
2.11792	-0.104675	0.000152588	
2.11761	-0.10376	-0.000457764	
2.11792	-0.10376	0.00106812	
2.11792	-0.104065	0.000305176	
2.11792	-0.10437	0.000762939	
2.12128	-0.10437	0.000305176	
2.1225	-0.10437	0.000457764	
2.1225	-0.104065	0.000152588	
2.1228	-0.104675	0.000152588	
2.1228	-0.10437	0.000305176	
2.12311	-0.104065	0.000152588	
2.12616	-0.101318	-0.000305176	
2.12738	-0.100403	0.0012207	
2.12769	-0.0991821	0.000152588	
2.12799	-0.0985718	0.000305176	
2.12769	-0.098877	0.000305176	
2.12799	-0.0994873	0.000762939	
2.1283	-0.0991821	0.000305176	
2.13104	-0.098877	0.000305176	
2.13226	-0.098877	0.000305176	
2.13257	-0.0991821	0.000457764	
2.13287	-0.0997925	-0.000152588	
2.13257	-0.0991821	0.00137329	
2.13226	-0.0991821	0.000152588	
2.13287	-0.0994873	0.000610352	
2.13562	-0.0994873	0.000457764	
2.13684	-0.0991821	0.000305176	
2.13745	-0.0997925	0.000152588	
2.13715	-0.0994873	0.000305176	
2.13745	-0.0997925	0.000457764	
2.13684	-0.0994873	0.000610352	
2.13776	-0.0991821	-0.000152588	
2.14081	-0.0991821	0.000610352	
2.14203	-0.0997925	0.00106812	
2.14264	-0.0991821	0.000762939	
2.14203	-0.0991821	-0.000305176	
2.14264	-0.0991821	0.000305176	
2.14233	-0.098877	0	
2.14325	-0.098877	0.000457764	
2.146	-0.0994873	0.000305176	
2.14722	-0.0994873	0.000152588	
2.14722	-0.0991821	0	
2.14722	-0.0997925	-0.000305176	
2.14691	-0.0994873	0.0012207	
2.14752	-0.098877	0.000457764	
2.14783	-0.0991821	0.000457764	
2.14813	-0.0991821	0.000457764	
2.15088	-0.0991821	0.000610352	
2.15179	-0.0994873	0.000457764	
2.1521	-0.0964355	0.000305176	
2.15271	-0.0949097	0.000152588	
2.1524	-0.0946045	0.000305176	
2.15179	-0.0946045	-0.000152588	
2.1521	-0.0942993	0.000305176	
2.15546	-0.0942993	0.000762939	
2.15698	-0.0942993	0.000915527	
2.15729	-0.0942993	0.000610352	
2.15698	-0.0939941	0.000152588	
2.15729	-0.0942993	0.000610352	
2.15729	-0.0946045	0.000152588	
2.1582	-0.0942993	0.000610352	
2.16034	-0.093689	0.000610352	
2.16217	-0.0946045	0.000152588	
2.16217	-0.0946045	0.000152588	
2.16248	-0.0942993	-0.000457764	
2.16248	-0.0946045	0.00106812	
2.16217	-0.0939941	0.000457764	
2.16187	-0.0952148	0.000305176	
2.16248	-0.0939941	0.000152588	
2.16553	-0.0946045	0.000457764	
2.16736	-0.0942993	0.000610352	
2.16675	-0.0939941	0.000457764	
2.16736	-0.0946045	0.000305176	
2.16736	-0.0939941	0.000305176	
2.16705	-0.0946045	0	
2.16797	-0.0949097	0.00106812	
2.16827	-0.0949097	0.000457764	
2.17041	-0.0949097	0.000152588	
2.17163	-0.0949097	0.000305176	
2.17224	-0.0946045	0.000305176	
2.17224	-0.093689	0	
2.17224	-0.0942993	0.000305176	
2.17224	-0.0946045	0	
2.17224	-0.0946045	0.000152588	
2.17285	-0.0942993	0.000152588	
2.1759	-0.0952148	0.00137329	
2.17651	-0.0949097	0.000305176	
2.17773	-0.0946045	0.000610352	
2.17682	-0.0946045	0.000305176	
2.17682	-0.0949097	0	
2.17712	-0.0912476	0	
2.17712	-0.0897217	0.000457764	
2.17804	-0.0894165	0.000305176	
2.18079	-0.0894165	0.000152588	
2.1814	-0.0894165	-0.000152588	
2.18231	-0.0897217	0.0012207	
2.18262	-0.0891113	0.000610352	
2.1817	-0.0894165	0.000762939	
2.18201	-0.0897217	0.000305176	
2.18231	-0.0900269	0.000305176	
2.18292	-0.0897217	0.000152588	
2.18567	-0.0897217	0.000305176	
2.18689	-0.0900269	0.000305176	
2.18658	-0.0894165	-0.000152588	
2.18689	-0.0897217	-0.000152588	
2.18689	-0.0894165	0.000762939	
2.1875	-0.0894165	0.000152588	
2.18689	-0.0900269	0.000305176	
2.18781	-0.0897217	0.000305176	
2.18994	-0.0891113	0.000152588	
2.19147	-0.0894165	0.000457764	
2.19147	-0.0891113	0.000457764	
2.19177	-0.0894165	0.000305176	
2.19116	-0.0894165	-0.000152588	
2.19116	-0.0900269	-0.000610352	
2.19116	-0.0900269	0.00106812	
2.19269	-0.0894165	0.000305176	
2.19452	-0.0891113	0.000152588	
2.19574	-0.0897217	0.000610352	
2.19666	-0.0891113	0.000305176	
2.19696	-0.0894165	0.000152588	
2.19604	-0.0891113	0.000152588	
2.19635	-0.0897217	0.000152588	
2.19635	-0.0897217	0.000152588	
2.19635	-0.0891113	0	
2.19727	-0.0897217	0.0012207	
2.20001	-0.0894165	0.000457764	
2.20123	-0.0891113	0.000457764	
2.20215	-0.0900269	0.000610352	
2.20215	-0.0900269	0	
2.20276	-0.0891113	0	
2.20184	-0.0897217	0.000152588	
2.20215	-0.0897217	0.000610352	
2.20123	-0.0897217	0.000305176	
2.20154	-0.0894165	0	
2.20551	-0.0897217	0.0012207	
2.20703	-0.0900269	0.000457764	
2.20612	-0.0897217	0.000610352	
2.20612	-0.0900269	0.000610352	
2.20642	-0.0891113	0.000152588	
2.20703	-0.0869751	0.000610352	
2.20612	-0.085144	0.000457764	
2.20642	-0.0848389	0.000152588	
2.20734	-0.0845337	-0.000152588	
2.20978	-0.0845337	-0.000457764	
2.21161	-0.0848389	0.00137329	
2.21161	-0.0848389	0.000305176	
2.2113	-0.0839233	0.000305176	
2.21191	-0.085144	0.000152588	
2.21191	-0.0845337	0.000457764	
2.2113	-0.0839233	0.000457764	
2.211	-0.0845337	0.000305176	
2.21252	-0.0848389	0.000152588	
2.21466	-0.0839233	0.000305176	
2.21588	-0.0845337	-0.000305176	
2.21588	-0.0845337	0.000915527	
2.21558	-0.0839233	0.000152588	
2.21619	-0.0848389	0.000152588	
2.21619	-0.0845337	0.000457764	
2.21619	-0.0839233	0	
2.21619	-0.0845337	0.000305176	
2.21619	-0.0848389	0.000305176	
2.2171	-0.0845337	0.000457764	
2.22015	-0.0842285	0.000610352	
2.22137	-0.0842285	-0.000152588	
2.22107	-0.0845337	0.00106812	
2.22076	-0.0845337	0.000457764	
2.22107	-0.0842285	0.000305176	
2.22107	-0.0845337	0.000457764	
2.22137	-0.0842285	0.000305176	
2.22107	-0.0842285	-0.000152588	
2.22076	-0.0848389	0.000305176	
2.22229	-0.083313	0.000152588	
2.22504	-0.0848389	0	
2.22565	-0.0842285	-0.000152588	
2.22595	-0.0845337	0.00106812	
2.22656	-0.0836182	0.000915527	
2.22595	-0.0842285	0.000762939	
2.22565	-0.0845337	0.000152588	
2.22565	-0.0848389	0.000305176	
2.22595	-0.0842285	0.000457764	
2.22595	-0.0848389	0.000152588	
2.22748	-0.085144	0.000457764	
2.22931	-0.0845337	-0.000152588	
2.23053	-0.0845337	-0.000305176	
2.23083	-0.0836182	0.00106812	
2.23145	-0.0845337	0.000305176	
2.23083	-0.0848389	0	
2.23083	-0.0845337	0.000305176	
2.23083	-0.0848389	0.000152588	
2.23145	-0.0845337	0.000762939	
2.23083	-0.0845337	0.000152588	
2.23083	-0.0845337	0.000457764	
2.23236	-0.0845337	0.000305176	
2.2348	-0.0848389	-0.000152588	
2.23602	-0.0848389	0.00106812	
2.23572	-0.085144	0	
2.23541	-0.0848389	0.000305176	
2.23602	-0.0845337	0.000457764	
2.23602	-0.0842285	0.000152588	
2.23541	-0.0845337	0.000305176	
2.23572	-0.0845337	0.000152588	
2.23633	-0.0842285	0.000305176	
2.23602	-0.0845337	0.000610352	
2.23724	-0.085144	-0.000457764	
2.23969	-0.0842285	0.0012207	
2.2406	-0.0854492	0.000457764	
2.2406	-0.0842285	0.000762939	
2.24091	-0.0869751	0.000610352	
2.24152	-0.088501	0.000152588	
2.24091	-0.0894165	0.000305176	
2.24121	-0.0900269	0.000610352	
2.24121	-0.0894165	0.000457764	
2.24121	-0.0897217	0	
2.24091	-0.0897217	-0.000305176	
2.2406	-0.0891113	0.000915527	
2.24152	-0.0897217	0.000305176	
2.24518	-0.0894165	0.000610352	
2.2467	-0.0894165	0.000305176	
2.2464	-0.0897217	0.000610352	
2.24609	-0.0894165	0.000610352	
2.24609	-0.0891113	0.000305176	
2.24579	-0.0894165	0.000305176	
2.24609	-0.0900269	0.000152588	
2.2467	-0.0894165	-0.000152588	
2.24579	-0.0900269	0.00137329	
2.2467	-0.0897217	0.000305176	
2.24579	-0.0894165	0.000152588	
2.24609	-0.0891113	0	
2.2467	-0.0897217	0.000610352	
2.24976	-0.0900269	0.000457764	
2.25098	-0.0894165	0.000610352	
2.25098	-0.0900269	0	
2.25098	-0.0894165	0.000152588	
2.25006	-0.0888062	0.000152588	
2.25067	-0.0900269	0.00106812	
2.25037	-0.0900269	0.000305176	
2.25098	-0.0891113	0.000457764	
2.25037	-0.0891113	0.000457764	
2.25098	-0.0900269	0	
2.25128	-0.0894165	0.000457764	
2.25037	-0.0894165	0.000457764	
2.25159	-0.0894165	0.000305176	
2.25433	-0.0897217	0.000305176	
2.25525	-0.0894165	0.000152588	
2.25647	-0.0891113	0.000915527	
2.25616	-0.0900269	0.000457764	
2.25586	-0.0897217	0.000457764	
2.25647	-0.0894165	0.000152588	
2.25616	-0.0897217	0.000305176	
2.25586	-0.0897217	0.000305176	
2.25586	-0.0891113	0.000457764	
2.25586	-0.0897217	0.000457764	
2.25555	-0.0888062	0.000152588	
2.25525	-0.0869751	-0.000152588	
2.25647	-0.085144	0.00106812	
2.25677	-0.0842285	0.000610352	
2.25952	-0.0848389	0.000457764	
2.26074	-0.0842285	0.000457764	
2.26074	-0.0845337	0.000610352	
2.26074	-0.0842285	0.000457764	
2.26074	-0.0845337	0.000152588	
2.26074	-0.085144	0	
2.26044	-0.085144	0.000152588	
2.26044	-0.0854492	-0.000305176	
2.26044	-0.0848389	0.00106812	
2.26074	-0.0848389	0.000152588	
2.26105	-0.085144	0.000152588	
2.26105	-0.0845337	0.000457764	
2.26074	-0.0842285	0.000457764	
2.26135	-0.0842285	0.000457764	
2.26257	-0.085144	0.000305176	
2.26501	-0.0848389	0.000305176	
2.26532	-0.085144	0	
2.26593	-0.0820923	-0.000152588	
2.26593	-0.0799561	0.00106812	
2.26624	-0.0793457	0.000305176	
2.26501	-0.0799561	0.000305176	
2.26624	-0.0796509	0.000305176	
2.26563	-0.0796509	0.000610352	
2.26563	-0.0799561	0.000305176	
2.26563	-0.0793457	0.000152588	
2.26563	-0.0796509	0.000305176	
2.26563	-0.0793457	0.000305176	
2.26563	-0.0772095	0	
2.26593	-0.0753784	0.0012207	
2.26563	-0.0747681	0.000610352	
2.26685	-0.0747681	0.000305176	
2.26898	-0.0750732	0.000305176	
2.27051	-0.0747681	0.000305176	
2.27051	-0.0747681	0.000305176	
2.27081	-0.0747681	0.000305176	
2.27142	-0.0720215	0.000457764	
2.2702	-0.0708008	0.000152588	
2.27051	-0.0698853	-0.000152588	
2.27081	-0.0698853	0.00106812	
2.27051	-0.0692749	0.000610352	
2.27081	-0.0698853	0.000457764	
2.27142	-0.0671387	0.000305176	
2.27051	-0.0653076	0.000457764	
2.27112	-0.0646973	0.000305176	
2.27081	-0.0653076	0.000610352	
2.27142	-0.0650024	0.000152588	
2.27081	-0.0646973	0.000152588	
2.27112	-0.0628662	-0.000457764	
2.27142	-0.0601196	0.00137329	
2.27386	-0.0601196	0	
2.27539	-0.0601196	0.000457764	
2.27539	-0.0567627	0.000305176	
2.27509	-0.0552368	0.000457764	
2.27539	-0.0552368	0.000610352	
2.2757	-0.0558472	0.000457764	
2.2757	-0.0549316	0.000305176	
2.27509	-0.0521851	0.000305176	
2.27539	-0.0515747	-0.000305176	
2.276	-0.050354	0.000915527	
2.27631	-0.050354	0.000305176	
2.27539	-0.0469971	0.000152588	
2.2757	-0.0460815	0.000152588	
2.2757	-0.0457764	0.000152588	
2.276	-0.0427246	0	
2.27509	-0.0408936	0.000457764	
2.276	-0.0405884	0.000305176	
2.2757	-0.0402832	0.000305176	
2.276	-0.0378418	0	
2.27905	-0.0360107	0.00106812	
2.27966	-0.0357056	0.000457764	
2.28027	-0.032959	0.000305176	
2.28058	-0.0308228	0.000610352	
2.28027	-0.0308228	0.000305176	
2.28058	-0.027771	0.000152588	
2.28058	-0.0262451	0.000305176	
2.28088	-0.0256348	0.000610352	
2.28058	-0.0234985	0.000152588	
2.28058	-0.0216675	0	
2.28088	-0.020752	0.0012207	
2.28088	-0.0177002	0.000915527	
2.28058	-0.0161743	0.000457764	
2.28058	-0.0152588	0.000305176	
2.28088	-0.0131226	0.000610352	
2.28058	-0.0112915	0.000457764	
2.28088	-0.00793457	0.000457764	
2.28027	-0.00610352	0.000152588	
2.28088	-0.00610352	-0.000152588	
2.28058	-0.00366211	0	
2.28058	-0.0012207	0.000305176	
2.28088	-0.0012207	0.000457764	
2.28088	-0.00152588	0.000305176	
2.28424	-0.000915527	0.000152588	
2.28516	-0.0012207	0.000152588	
2.28546	-0.00152588	0.000610352	
2.28577	-0.0012207	0.000610352	
2.28607	-0.00183105	0.000610352	
2.28638	-0.0012207	0.000457764	
2.28577	-0.0012207	0.000457764	
2.28546	-0.000915527	0.00106812	
2.28546	0.0125122	0.000305176	
2.28516	0.0216675	0	
2.28577	0.0265503	0.000457764	
2.28577	0.027771	0.000305176	
2.28546	0.0302124	0.000457764	
2.28516	0.0326538	0.000457764	
2.28607	0.0332642	0.000305176	
2.28516	0.0360107	0.000610352	
2.28546	0.038147	-0.000152588	
2.28607	0.0408936	0.00137329	
2.28485	0.0424194	0.000457764	
2.28577	0.0460815	0.000305176	
2.28607	0.0476074	0.000457764	
2.28516	0.050354	0.000305176	
2.28546	0.0518799	0.000152588	
2.28607	0.0552368	0.000152588	
2.28607	0.0567627	0.000457764	
2.28516	0.06073	0	
2.28638	0.0619507	0	
2.28943	0.0653076	0.0012207	
2.29034	0.0674438	0.000762939	
2.29095	0.0701904	0.000457764	
2.29034	0.0717163	0.000762939	
2.29034	0.0753784	0.000457764	
2.29004	0.0775146	0.000457764	
2.29095	0.0799561	0.000457764	
2.28973	0.0814819	0.000305176	
2.29034	0.0842285	-0.000152588	
2.29065	0.0854492	-0.000305176	
2.29034	0.0897217	0.00106812	
2.29034	0.090332	0.000610352	
2.29095	0.093689	0.000610352	
2.29034	0.0958252	0.000457764	
2.29065	0.0994873	0.000457764	
2.29065	0.100708	0.000610352	
2.29095	0.10376	0.000152588	
2.29034	0.105591	0.000610352	
2.29095	0.109253	0.000305176	
2.29004	0.110474	-0.000305176	
2.29095	0.114136	0.000915527	
2.29065	0.118713	0.000457764	
2.29034	0.120544	0.000305176	
2.29004	0.123596	0.000152588	
2.29034	0.124817	0.000305176	
2.29065	0.127563	0.000610352	
2.29065	0.130005	0.000305176	
2.29095	0.132751	0.000305176	
2.29095	0.135193	0.000457764	
2.29034	0.137939	-0.000152588	
2.29004	0.140381	0.00106812	
2.29004	0.143433	0.000152588	
2.29004	0.145264	0.000152588	
2.29004	0.147705	0.000305176	
2.29034	0.149536	0.000610352	
2.29065	0.152588	0	
2.29431	0.154724	0	
2.29523	0.158081	0.000305176	
2.29523	0.159607	-0.000152588	
2.29553	0.161743	-0.000152588	
2.29523	0.163879	0.00106812	
2.29553	0.168152	0.000610352	
2.29553	0.169983	0.000457764	
2.29584	0.17334	0.000610352	
2.29523	0.174255	0.000305176	
2.29584	0.177307	0.000305176	
2.29553	0.1828	0.000610352	
2.29492	0.183105	0.000305176	
2.29492	0.187073	0	
2.29553	0.188599	-0.000152588	
2.29584	0.191956	0.00106812	
2.29492	0.193481	0.000457764	
2.29584	0.194397	0.000305176	
2.29523	0.196228	0.000152588	
2.29584	0.198669	0.000305176	
2.29614	0.201416	0.000610352	
2.29523	0.203857	0.000305176	
2.29523	0.206299	0.000610352	
2.29523	0.20813	0.000305176	
2.29553	0.212097	-0.000152588	
2.29492	0.213013	0.000915527	
2.29523	0.216675	0.000152588	
2.29492	0.217896	0.000152588	
2.29523	0.220947	0.000305176	
2.29492	0.223083	0.000305176	
2.29553	0.22644	0.000152588	
2.29584	0.228271	0.000305176	
2.29584	0.231323	0.000610352	
2.29523	0.233154	0.000305176	
2.29584	0.233765	-0.000152588	
2.29523	0.235901	0.00106812	
2.29492	0.238647	0.000915527	
2.29553	0.241089	0.000457764	
2.29492	0.24353	0.000457764	
2.29584	0.245972	0.000457764	
2.29523	0.247498	0.000305176	
2.29584	0.250854	0.000152588	
2.29523	0.252991	0.000457764	
2.29523	0.252991	0.000152588	
2.29523	0.255432	0	
2.29553	0.257874	0.0012207	
2.29584	0.26123	0.000762939	
2.29553	0.262146	0.000457764	
2.29523	0.263062	0.000610352	
2.29523	0.265808	0.000305176	
2.29584	0.267334	0.000305176	
2.29553	0.267334	0.000152588	
2.29553	0.270691	0.000457764	
2.29553	0.272522	0	
2.29523	0.275574	-0.000610352	
2.29492	0.277405	0.000915527	
2.29553	0.27832	0.000457764	
2.29523	0.280151	0.000610352	
2.29523	0.282593	0.000762939	
2.29553	0.282593	0.000457764	
2.29614	0.284729	0.000762939	
2.29889	0.28717	0.000305176	
2.30042	0.288086	-0.000152588	
2.30011	0.290222	0.000152588	
2.30133	0.291138	-0.000457764	
2.30042	0.292664	0.000762939	
2.30011	0.295105	0	
2.30011	0.297241	0.000152588	
2.2998	0.297852	0.000152588	
2.30011	0.300293	0.000305176	
2.30011	0.301514	0.000457764	
2.30072	0.30304	0.000152588	
2.30042	0.302734	0.000610352	
2.30011	0.304565	0.000457764	
2.2995	0.306702	0	
2.2995	0.307007	0.00137329	
2.30042	0.310364	0.000305176	
2.30011	0.311584	0.000457764	
2.30011	0.31189	0.000610352	
2.30011	0.312195	0	
2.30011	0.314331	0.000152588	
2.2998	0.316162	0.000305176	
2.30011	0.316772	0.000915527	
2.30011	0.317383	0.000305176	
2.30042	0.319519	-0.000305176	
2.30042	0.321045	0.00106812	
2.30011	0.32196	0.000915527	
2.30042	0.32135	0.000457764	
2.2998	0.32135	0.000457764	
2.2998	0.324402	0.000152588	
2.30042	0.326233	0.000305176	
2.30103	0.326843	0.000457764	
2.30042	0.326233	0.000152588	
2.30103	0.326843	0	
2.30011	0.32959	-0.000305176	
2.30042	0.331116	0.000610352	
2.30011	0.331116	0.00106812	
2.2998	0.332336	0.000305176	
2.30042	0.331421	0.000762939	
2.30042	0.332031	0.000457764	
2.30011	0.331421	0.000305176	
2.2998	0.331116	0.000457764	
2.30042	0.334167	0.000305176	
2.30042	0.335693	0.000305176	
2.30011	0.336304	0.000457764	
2.30072	0.336304	-0.000305176	
2.30042	0.336304	0.000915527	
2.30011	0.335999	0.000152588	
2.30042	0.336304	0	
2.30011	0.335999	0.000305176	
2.30011	0.338745	0	
2.30042	0.340576	0.000305176	
2.30072	0.341187	0.000152588	
2.2998	0.341797	0.000915527	
2.30103	0.341187	0.000457764	
2.30103	0.340881	-0.000305176	
2.30042	0.341492	0.00137329	
2.29919	0.341187	0.000152588	
2.30042	0.340881	0.000457764	
2.30103	0.340881	0.000152588	
2.30042	0.340881	0.000152588	
2.30011	0.341187	0.000610352	
2.2998	0.340881	0.000305176	
2.30011	0.341187	0.000305176	
2.30011	0.344238	0.000610352	
2.30042	0.346069	-0.000152588	
2.30011	0.345764	0.0012207	
2.30103	0.346985	0.000610352	
2.30011	0.346985	0.000610352	
2.30042	0.346069	0.000305176	
2.30072	0.346069	0.000457764	
2.30011	0.345459	0.000762939	
2.30042	0.345764	0.000457764	
2.29706	0.345764	0.000305176	
2.29553	0.346069	0.000305176	
2.29553	0.34668	-0.000457764	
2.29584	0.345459	0.00106812	
2.29523	0.345459	0	
2.29523	0.345764	0.000305176	
2.29492	0.346069	0.000610352	
2.29584	0.34668	0.000610352	
2.29523	0.343628	0.000457764	
2.29492	0.341797	0.000457764	
2.29523	0.341492	0.000305176	
2.29584	0.340576	0.000457764	
2.29553	0.340576	-0.000457764	
2.29553	0.341187	0	
2.29523	0.340576	0.000305176	
2.29523	0.341187	0	
2.29553	0.341187	0.000457764	
2.29523	0.340881	0.000915527	
2.29553	0.338745	0.000305176	
2.29553	0.336914	0.000152588	
2.29584	0.335693	0.000610352	
2.29523	0.336914	0.000305176	
2.29523	0.336304	0.000152588	
2.29553	0.336609	0.000305176	
2.29614	0.336304	0.000457764	
2.29553	0.335999	0.000152588	
2.29523	0.335693	-0.000762939	
2.29584	0.333557	0.000610352	
2.29584	0.332336	0.000305176	
2.29523	0.331421	0.000152588	
2.29614	0.331726	0.000305176	
2.29523	0.332336	0.000305176	
2.29553	0.330811	0.000305176	
2.29523	0.331421	0.000457764	
2.29553	0.328674	0.000762939	
2.29553	0.327148	0.000457764	
2.29492	0.326233	-0.000152588	
2.29553	0.325928	0.00137329	
2.29492	0.326233	0.000457764	
2.29553	0.326538	0.000610352	
2.29431	0.323486	0.000152588	
2.29492	0.322266	0.000305176	
2.29462	0.321655	0.000305176	
2.29492	0.32135	0	
2.29492	0.32196	0.000305176	
2.29553	0.321655	0.000305176	
2.29553	0.318604	-0.000152588	
2.29523	0.316772	0.000915527	
2.29584	0.317078	0.000305176	
2.29553	0.316772	0.000915527	
2.29584	0.316772	0.000305176	
2.29523	0.316772	0.000305176	
2.29584	0.317078	0.000305176	
2.29523	0.313721	0.000152588	
2.29584	0.312195	0	
2.29523	0.31189	0.000305176	
2.29553	0.31189	0.000305176	
2.29553	0.31189	0.000152588	
2.29492	0.309143	-0.000305176	
2.29523	0.307617	0.00106812	
2.29584	0.307007	0.000457764	
2.29584	0.306702	0.000305176	
2.29553	0.30426	0.000305176	
2.29553	0.302734	0.000305176	
2.29584	0.302429	0.000915527	
2.29553	0.302124	0.000457764	
2.29523	0.302124	0.000152588	
2.29584	0.299683	0.000457764	
2.29584	0.297546	-0.000762939	
2.29523	0.296936	0.000915527	
2.29492	0.297241	0.000152588	
2.29187	0.293884	0.000305176	
2.29004	0.292358	0.000305176	
2.29034	0.292053	0.000762939	
2.29034	0.292053	0.000610352	
2.29065	0.288696	0.000457764	
2.29065	0.288086	0.000305176	
2.29065	0.287476	0.000762939	
2.29004	0.28656	-0.000305176	
2.29034	0.284729	0.000915527	
2.29034	0.283203	0	
2.29065	0.283203	0.000305176	
2.29004	0.282288	0.000457764	
2.29095	0.279541	0.000305176	
2.29065	0.27771	0.000457764	
2.29095	0.277405	0.000152588	
2.29126	0.277405	0.000152588	
2.29034	0.274963	0.00106812	
2.29034	0.272522	-0.000152588	
2.29095	0.272827	0.00106812	
2.29065	0.270081	0.000152588	
2.29065	0.267639	0	
2.29004	0.267334	0.000305176	
2.29065	0.26825	0.000305176	
2.29065	0.264893	0.000305176	
2.29095	0.263062	0	
2.29034	0.262146	0.000152588	
2.29095	0.261841	0.000305176	
2.29065	0.259705	-0.000457764	
2.29034	0.257874	0.000152588	
2.29034	0.257568	0.0012207	
2.29065	0.257874	0.000305176	
2.29034	0.255737	0.000610352	
2.29095	0.253906	0.000305176	
2.29034	0.252686	0.000305176	
2.29065	0.252686	0.000305176	
2.29034	0.250244	0.000305176	
2.29065	0.248413	-0.000152588	
2.29065	0.247803	0.000152588	
2.29004	0.246277	-0.000305176	
2.29034	0.243835	0.00106812	
2.29004	0.24292	0.000152588	
2.29095	0.240173	0.000305176	
2.29004	0.238953	0.000762939	
2.29034	0.238647	0.000610352	
2.29034	0.237732	0.000457764	
2.29065	0.235901	0.000457764	
2.29004	0.233765	0.000457764	
2.28638	0.233765	0.000762939	
2.28577	0.231323	-0.000305176	
2.28516	0.229492	0.000915527	
2.28546	0.228882	0.000152588	
2.28546	0.225525	0.000305176	
2.28577	0.223389	0.000457764	
2.28607	0.223389	0.000152588	
2.28577	0.223083	0.000152588	
2.28516	0.220337	0.000305176	
2.28607	0.219421	0.000457764	
2.28577	0.218811	0.000610352	
2.28607	0.215759	-0.000610352	
2.28577	0.214539	0.0012207	
2.28607	0.213928	0.000305176	
2.28546	0.211182	0.000305176	
2.28577	0.209045	0.000305176	
2.28577	0.20874	0.000152588	
2.28638	0.205688	0.000152588	
2.28577	0.204163	0.000152588	
2.28516	0.203857	-0.000152588	
2.28607	0.204163	0.000457764	
2.28516	0.201416	-0.000152588	
2.28516	0.199585	0.00152588	
2.28607	0.198364	0.000762939	
2.28516	0.195923	0.000305176	
2.28607	0.194702	0.000457764	
2.28516	0.194092	0.000305176	
2.28577	0.191956	0.000610352	
2.28485	0.190125	0.000305176	
2.28607	0.188293	-0.000152588	
2.28516	0.185852	0.000152588	
2.28516	0.184021	-0.000305176	
2.28577	0.184326	0.000762939	
2.28607	0.184326	0.000610352	
2.28516	0.181885	0.000305176	
2.28516	0.180054	0.000915527	
2.28424	0.180054	0.000457764	
2.28241	0.176392	0.000457764	
2.28058	0.174866	0.000305176	
2.28058	0.174561	0.000152588	
2.28027	0.172119	0.000610352	
2.28027	0.169983	-0.000305176	
2.28058	0.169067	0.000915527	
2.28058	0.166321	0.000305176	
2.28119	0.16449	0.000610352	
2.28027	0.16449	0.000457764	
2.28088	0.164795	0.000457764	
2.28058	0.161743	0.000305176	
2.28119	0.159912	0.000610352	
2.28119	0.159302	0.000305176	
2.28058	0.157166	0.000762939	
2.28027	0.155029	-0.000457764	
2.28088	0.155945	0.00106812	
2.28027	0.152893	0.000305176	
2.28058	0.150452	0	
2.28088	0.150452	0	
2.28088	0.147705	0.000152588	
2.28058	0.144958	0.000305176	
2.28058	0.145264	0.000152588	
2.28088	0.145569	0	
2.28027	0.141907	0.000305176	
2.28088	0.140076	-0.000152588	
2.28119	0.140381	0.00106812	
2.28119	0.137939	0.000457764	
2.28088	0.136108	0.000305176	
2.28058	0.135498	0.000457764	
2.28058	0.135803	0.000305176	
2.28058	0.133057	0.000457764	
2.27966	0.13031	0.000457764	
2.27692	0.130005	0	
2.2757	0.126953	0.000457764	
2.27509	0.126038	-0.000152588	
2.276	0.125122	0.000915527	
2.2757	0.125427	0.000457764	
2.276	0.123291	0.000457764	
2.2757	0.12085	0.000762939	
2.27539	0.120544	0.000305176	
2.276	0.118103	0.000457764	
2.276	0.116272	0.000305176	
2.27539	0.115356	0.000152588	
2.2757	0.115662	0.000762939	
2.27539	0.112305	-0.000305176	
2.2757	0.111389	0.00106812	
2.27539	0.110168	0.000457764	
2.2757	0.108337	0.000152588	
2.2757	0.106506	0.000152588	
2.27539	0.105896	0.000305176	
2.2757	0.105896	0.000152588	
2.2757	0.103455	0.000610352	
2.27539	0.101013	0.000457764	
2.276	0.101013	0.000762939	
2.27539	0.101013	-0.000457764	
2.27539	0.0985718	0.000762939	
2.27509	0.0967407	0.000762939	
2.27539	0.0964355	0.000152588	
2.2757	0.0964355	0.000152588	
2.27509	0.0933838	0.000305176	
2.27203	0.0918579	0	
2.27112	0.0909424	0.000305176	
2.27081	0.0909424	0.000152588	
2.27081	0.0881958	0.000457764	
2.27081	0.0869751	-0.000305176	
2.27051	0.0866699	0.00137329	
2.27081	0.0872803	0.000305176	
2.27081	0.083313	0.000762939	
2.27112	0.0823975	0.000457764	
2.2699	0.0817871	0.000305176	
2.27112	0.0811768	0.000457764	
2.27081	0.0796509	0.000152588	
2.2699	0.0769043	0	
2.2702	0.0775146	0.000457764	
2.2702	0.0772095	-0.000152588	
2.27081	0.0775146	0.00137329	
2.27081	0.0750732	0	
2.27112	0.0723267	0.000305176	
2.27051	0.0726318	0.000457764	
2.27112	0.0720215	0.000305176	
2.27051	0.0698853	0.000457764	
2.27081	0.0671387	0.000457764	
2.27081	0.0665283	0.000457764	
2.27081	0.0671387	0.000610352	
2.27081	0.0668335	-0.000305176	
2.2702	0.0650024	0	
2.26776	0.0631714	0.000152588	
2.26593	0.062561	0	
2.26593	0.0619507	0.00106812	
2.26532	0.0619507	0.000305176	
2.26593	0.062561	0.000305176	
2.26593	0.0622559	0.000457764	
2.26654	0.0622559	0.000152588	
2.26624	0.0595093	0.000305176	
2.26593	0.0585938	0.000305176	
2.26624	0.057373	0.000305176	
2.26593	0.0582886	0.000610352	
2.26563	0.0579834	-0.000152588	
2.26654	0.0549316	0.000762939	
2.26593	0.0534058	0	
2.26593	0.0524902	0.000305176	
2.26532	0.0527954	0.000305176	
2.26501	0.0527954	0.000152588	
2.26624	0.0524902	0.000457764	
2.26563	0.0491333	0.000457764	
2.26563	0.0482178	0.000305176	
2.26593	0.0476074	0.000762939	
2.26593	0.0476074	-0.000152588	
2.26624	0.0482178	0.000915527	
2.26593	0.0473022	0.000457764	
2.26685	0.045166	0.000762939	
2.26593	0.043335	0.000305176	
2.26501	0.0427246	0.000152588	
2.26227	0.0427246	0.000305176	
2.26135	0.0430298	0.000305176	
2.26105	0.0424194	0	
2.26105	0.0402832	0.000457764	
2.26105	0.0378418	-0.000152588	
2.26074	0.0375366	0.00137329	
2.26105	0.0378418	0.000610352	
2.26105	0.0375366	0.000610352	
2.26135	0.0375366	0.000457764	
2.26074	0.0378418	0.000610352	
2.26013	0.0360107	0.000457764	
2.26105	0.0326538	0.000305176	
2.26074	0.0326538	0	
2.26135	0.0323486	0.000152588	
2.26105	0.0326538	-0.000610352	
2.26105	0.0323486	0.0012207	
2.26105	0.0326538	0.000305176	
2.26074	0.0305176	0.000305176	
2.26135	0.0283813	0.000305176	
2.26013	0.0280762	0.000457764	
2.26074	0.0280762	0.000305176	
2.25983	0.0280762	0.000457764	
2.258	0.0280762	0.000457764	
2.25586	0.027771	0.000610352	
2.25616	0.0283813	-0.000152588	
2.25647	0.0253296	0.000152588	
2.25586	0.0238037	0.000305176	
2.25647	0.022583	0.000457764	
2.25586	0.0219727	0.000152588	
2.25586	0.0228882	0.000305176	
2.25616	0.0228882	0.000305176	
2.25555	0.0228882	0.000305176	
2.25586	0.0234985	0.000305176	
2.25586	0.0234985	0.000915527	
2.25586	0.0231934	0.000305176	
2.25616	0.0231934	0.00137329	
2.25586	0.0201416	0.000305176	
2.25647	0.0195313	0.000610352	
2.25586	0.0183105	0.000305176	
2.25586	0.0186157	0	
2.25616	0.0186157	0.000305176	
2.25555	0.0183105	0.000457764	
2.25586	0.0183105	0.000152588	
2.25525	0.0183105	0.000610352	
2.25189	0.0186157	-0.000305176	
2.25128	0.0180054	0.00137329	
2.25128	0.0158691	0.000610352	
2.25098	0.0137329	0.000457764	
2.25067	0.0140381	0.000610352	
2.25128	0.0137329	0.000457764	
2.25067	0.0128174	0.000610352	
2.25037	0.0131226	0.000305176	
2.25128	0.0140381	0	
2.25067	0.0131226	0.000457764	
2.25037	0.0134277	-0.000305176	
2.25037	0.0131226	0.00137329	
2.25067	0.0128174	0.000610352	
2.25067	0.0131226	0.000305176	
2.25006	0.0131226	0.000457764	
2.25098	0.0134277	0.000305176	
2.25098	0.0106812	0.000457764	
2.25006	0.00915527	0.000305176	
2.25098	0.00823975	0.000152588	
2.25037	0.00823975	0.000915527	
2.24701	0.00762939	-0.000457764	
2.24548	0.00823975	0.000915527	
2.24548	0.00793457	-0.000152588	
2.2464	0.00823975	0.000152588	
2.2464	0.00854492	0.000305176	
2.2464	0.0088501	0.000152588	
2.2467	0.00793457	0.000305176	
2.2464	0.00823975	0.000762939	
2.2467	0.00823975	0.000457764	
2.24579	0.00823975	0.000762939	
2.24609	0.00823975	-0.000457764	
2.2464	0.00823975	0.0012207	
2.24701	0.00854492	0.000305176	
2.24579	0.00823975	0.000762939	
2.24579	0.00549316	0.000457764	
2.24609	0.00335693	0	
2.2464	0.00396729	0.000457764	
2.24548	0.00305176	0.000305176	
2.24609	0.00305176	0.000152588	
2.24548	0.00335693	0.000610352	
2.24243	0.00366211	-0.000457764	
2.24182	0.00366211	0.00152588	
2.24121	0.00335693	0.000457764	
2.24091	0.00305176	0.000610352	
2.24121	0.00335693	0.000152588	
2.24182	0.00335693	0.000457764	
2.24091	0.00305176	0.000305176	
2.24091	0.00335693	0.000305176	
2.24121	0.00335693	-0.000152588	
2.24091	0.00366211	0.000457764	
2.2406	0.00335693	-0.000457764	
2.24091	0.00366211	0.00106812	
2.2406	0.00366211	0.000305176	
2.2406	0.00396729	0.000305176	
2.24152	0.00366211	0.000305176	
2.24091	0.00305176	0.000457764	
2.2406	0.00335693	0.000457764	
2.24121	0.00396729	0.000305176	
2.24152	0.00366211	0.000305176	
2.23999	0.00366211	0.000457764	
2.23785	0.00335693	-0.000305176	
2.23633	0.00366211	0.000762939	
2.23633	0.00274658	0.000152588	
2.23602	0.000610352	0.000305176	
2.23602	-0.000305176	-0.000152588	
2.23633	-0.000610352	0.000152588	
2.23602	-0.0012207	0.000305176	
2.23572	-0.0012207	0.000305176	
2.23602	-0.000305176	0.000305176	
2.23572	-0.000610352	0.000762939	
2.23633	-0.00152588	-0.000152588	
2.23602	-0.0012207	0.00137329	
2.23572	-0.00152588	0.000305176	
2.23633	-0.0012207	0.000457764	
2.23602	-0.0012207	0.000152588	
2.23633	-0.000610352	0.000305176	
2.23572	-0.000610352	0.000305176	
2.23511	-0.000915527	0.000457764	
2.23236	-0.000610352	0.000457764	
2.23145	-0.0012207	0.000457764	
2.23083	0	-0.000305176	
2.23145	-0.000915527	0.0012207	
2.23145	-0.000915527	0.000305176	
2.23053	-0.0012207	0.000610352	
2.23175	-0.000915527	0.000457764	
2.23206	-0.000610352	0.000152588	
2.23175	-0.00152588	0.000457764	
2.23114	-0.00183105	0.000305176	
2.23083	-0.0012207	0.000152588	
2.23114	-0.000915527	0.000457764	
2.23083	-0.000610352	-0.000305176	
2.23053	-0.0012207	0.00106812	
2.23145	-0.000915527	0.000305176	
2.22992	-0.000915527	0.000305176	
2.23053	-0.0012207	0.000152588	
2.23053	-0.000915527	0.000915527	
2.22748	-0.0012207	0.000610352	
2.22595	-0.00152588	0.000305176	
2.22656	-0.0012207	0.000305176	
2.22656	-0.000915527	0.000152588	
2.22595	-0.000915527	-0.000152588	
2.22565	-0.000610352	0.00106812	
2.22656	-0.00152588	0.000305176	
2.22595	-0.0012207	0.000152588	
2.22626	-0.000915527	0.000152588	
2.22717	-0.000610352	0.000305176	
2.22626	-0.000915527	0.000152588	
2.22595	-0.0012207	0.000610352	
2.22565	-0.00427246	0.000152588	
2.22656	-0.00518799	0.000305176	
2.22565	-0.00579834	-0.000457764	
2.22656	-0.00549316	0.0012207	
2.22656	-0.00579834	0.000457764	
2.22565	-0.00610352	0.000305176	
2.2229	-0.00579834	0.000457764	
2.22107	-0.00671387	0	
2.22107	-0.00579834	0.000305176	
2.22107	-0.00549316	0.000457764	
2.22076	-0.00640869	0.000305176	
2.22137	-0.00579834	0.000762939	
2.22076	-0.00610352	-0.000152588	
2.22107	-0.00579834	0.00137329	
2.22168	-0.00579834	0.000610352	
2.22076	-0.00610352	0.000152588	
2.22107	-0.00579834	0.000305176	
2.22107	-0.00640869	0.000457764	
2.22076	-0.00671387	0.000610352	
2.22107	-0.00671387	0.000152588	
2.22046	-0.00610352	0	
2.22046	-0.00579834	0.000610352	
2.22046	-0.00610352	-0.000457764	
2.21741	-0.00610352	0.00106812	
2.2168	-0.00671387	0.000152588	
2.2168	-0.00579834	0.000152588	
2.2168	-0.00579834	0.000305176	
2.21619	-0.00610352	0.000457764	
2.21619	-0.00640869	0.000610352	
2.2171	-0.00549316	0.000152588	
2.21588	-0.00640869	0.000305176	
2.21619	-0.00579834	0.000457764	
2.21588	-0.00579834	-0.000457764	
2.2168	-0.00579834	0.000915527	
2.21619	-0.00579834	0.000152588	
2.21558	-0.00610352	0.000457764	
2.2168	-0.00549316	0.000152588	
2.21588	-0.00640869	0.000457764	
2.2168	-0.00640869	0	
2.21558	-0.00915527	0.000152588	
2.21222	-0.0106812	0.000457764	
2.21161	-0.0109863	0.000762939	
2.2113	-0.0106812	-0.000305176	
2.21191	-0.0112915	0.000915527	
2.21161	-0.0106812	0.000610352	
2.21069	-0.0106812	0.000457764	
2.211	-0.0106812	0.000610352	
2.21191	-0.0115967	0.000305176	
2.2113	-0.0112915	0.000305176	
2.2113	-0.0112915	0.000305176	
2.2113	-0.0106812	0.000152588	
2.2113	-0.0106812	0.000457764	
2.2113	-0.010376	-0.000305176	
2.211	-0.0109863	0.0012207	
2.211	-0.010376	0.000762939	
2.20978	-0.0109863	0.000610352	
2.20795	-0.0106812	0.000610352	
2.20642	-0.0106812	0.000610352	
2.20642	-0.0109863	0.000457764	
2.20642	-0.0106812	0.000152588	
2.20612	-0.010376	0	
2.20703	-0.0109863	0.000457764	
2.20642	-0.0109863	-0.000610352	
2.20612	-0.0109863	0.0012207	
2.20734	-0.0112915	0.000305176	
2.20642	-0.0109863	0.000457764	
2.20642	-0.0115967	0.000305176	
2.20642	-0.010376	0	
2.20581	-0.0134277	0.000457764	
2.20642	-0.0158691	0.000457764	
2.20551	-0.0161743	0.000305176	
2.20276	-0.0161743	0.000457764	
2.20123	-0.0158691	-0.000457764	
2.20123	-0.0161743	0.000762939	
2.20123	-0.0164795	0	
2.20123	-0.015564	0.000305176	
2.20184	-0.0152588	0.000457764	
2.20154	-0.0158691	0.000305176	
2.20154	-0.0161743	0.000305176	
2.20093	-0.0161743	0.000457764	
2.20123	-0.0152588	0.000762939	
2.20154	-0.0158691	0.000457764	
2.20123	-0.0158691	0	
2.20184	-0.0161743	0.00137329	
2.20062	-0.0161743	0.000457764	
2.20123	-0.0161743	0.000457764	
2.19788	-0.0161743	0.000305176	
2.19727	-0.015564	0	
2.19727	-0.0158691	0.000610352	
2.19666	-0.0158691	0.000457764	
2.19635	-0.0186157	0.000305176	
2.19666	-0.0201416	0.000610352	
2.19666	-0.020752	-0.000152588	
2.19666	-0.0204468	0.00137329	
2.19604	-0.020752	0.000762939	
2.19666	-0.0204468	0.000762939	
2.19604	-0.0213623	0.000457764	
2.19635	-0.0204468	0.000457764	
2.19635	-0.020752	0.000457764	
2.19666	-0.0210571	0.000610352	
2.19574	-0.0213623	0.000152588	
2.19269	-0.020752	0.000610352	
2.19208	-0.0210571	-0.000305176	
2.19055	-0.0210571	0.00106812	
2.19177	-0.020752	0.000457764	
2.19177	-0.020752	0.000457764	
2.19208	-0.0213623	0.000305176	
2.19147	-0.0213623	0.000457764	
2.19177	-0.0241089	0.000457764	
2.19116	-0.0253296	0.000305176	
2.19208	-0.0250244	0.000305176	
2.19116	-0.0256348	0.000762939	
2.19147	-0.0259399	-0.000305176	
2.19177	-0.0259399	0.000915527	
2.19086	-0.0259399	0.000457764	
2.18781	-0.0259399	0.000152588	
2.18658	-0.0262451	0.000457764	
2.18689	-0.0259399	0.000152588	
2.18719	-0.0262451	0.000305176	
2.18658	-0.0256348	0	
2.18658	-0.0256348	0.000457764	
2.1875	-0.0253296	0.000762939	
2.18658	-0.0256348	-0.000152588	
2.18658	-0.0262451	0.0012207	
2.18658	-0.0283813	0.000610352	
2.18689	-0.0305176	0.000305176	
2.18658	-0.0305176	0.000305176	
2.18689	-0.0311279	0.000305176	
2.18658	-0.0305176	0.000152588	
2.18323	-0.0311279	0.000457764	
2.18262	-0.0305176	0.000152588	
2.18231	-0.0302124	0.000762939	
2.1817	-0.0311279	0	
2.18201	-0.0305176	0.00137329	
2.1817	-0.0311279	0.000457764	
2.1817	-0.0308228	0.000305176	
2.18231	-0.0305176	0.000457764	
2.18201	-0.0305176	0	
2.18201	-0.032959	0.000152588	
2.18201	-0.0357056	0.000610352	
2.1814	-0.0354004	0	
2.18109	-0.0354004	0.000305176	
2.17896	-0.0354004	0	
2.17682	-0.0357056	0.0012207	
2.17651	-0.0350952	0.000610352	
2.17712	-0.0360107	0.000457764	
2.17712	-0.0354004	0.000305176	
2.17651	-0.0354004	0.000457764	
2.17682	-0.0357056	0.000305176	
2.17773	-0.0360107	0	
2.17651	-0.0350952	0	
