model_ppg1.acq
0.5 msec/sample
3 channels
RSP, X, RSPEC-R
Volts
PPG, X, PPGED-R
Volts
ECG, Y, RSPEC-R
mV
CH1	CH2	CH13	
294465	294465	294465	
6.47766	-0.0799561	0	
6.47766	-0.0805664	0.000152588	
6.47766	-0.0796509	0.000152588	
6.47766	-0.0796509	0.000610352	
6.47766	-0.0796509	0.000457764	
6.47827	-0.0799561	0.000457764	
6.47766	-0.0796509	0.000457764	
6.47766	-0.0796509	0.000610352	
6.47736	-0.0802612	0.000457764	
6.47736	-0.0802612	0.000305176	
6.47736	-0.0799561	0.000152588	
6.47766	-0.0799561	0.000152588	
6.47705	-0.0793457	0.000305176	
6.47705	-0.0805664	0.000152588	
6.47797	-0.0793457	0.000457764	
6.47736	-0.0802612	0.000305176	
6.47766	-0.0796509	0.000610352	
6.47766	-0.0796509	0.000762939	
6.47797	-0.0799561	0.000457764	
6.47766	-0.0799561	0.000457764	
6.47766	-0.0799561	0.000610352	
6.47797	-0.0793457	0.000457764	
6.47736	-0.0796509	0.000305176	
6.47736	-0.0796509	0.000305176	
6.47797	-0.0799561	0.000457764	
6.47797	-0.0802612	0.000305176	
6.47766	-0.0802612	0.000152588	
6.47797	-0.0796509	0.000457764	
6.47797	-0.0796509	0.000305176	
6.47736	-0.0799561	0.000305176	
6.47827	-0.0799561	0.000457764	
6.47797	-0.0796509	0.000305176	
6.47705	-0.0799561	0.000305176	
6.47766	-0.0799561	0.000915527	
6.47797	-0.0799561	0.000457764	
6.47705	-0.0799561	0.000152588	
6.47797	-0.0805664	0.000457764	
6.47797	-0.0796509	0	
6.47797	-0.0799561	0	
6.47766	-0.0799561	0.000457764	
6.47827	-0.0799561	0.000152588	
6.47736	-0.0799561	0.000457764	
6.47736	-0.0799561	0.000152588	
6.47736	-0.0793457	0.000762939	
6.47736	-0.0802612	0.000457764	
6.47644	-0.0802612	0.000457764	
6.47461	-0.0802612	0.000457764	
6.47308	-0.0793457	0.000762939	
6.47278	-0.0796509	0.000762939	
6.47308	-0.0796509	0.000152588	
6.47278	-0.0796509	0.000152588	
6.47308	-0.0805664	0.000152588	
6.47278	-0.0799561	0.000305176	
6.47278	-0.0802612	0.000152588	
6.47278	-0.0799561	0.000457764	
6.47247	-0.0799561	0.000152588	
6.47278	-0.0802612	0.000305176	
6.47217	-0.0796509	0.000762939	
6.47308	-0.0805664	0.000762939	
6.47308	-0.0802612	0.000610352	
6.47278	-0.0772095	0.000457764	
6.47278	-0.0759888	0.000457764	
6.47308	-0.0747681	0.000457764	
6.47278	-0.0759888	0.000305176	
6.47339	-0.0750732	0.000305176	
6.47278	-0.0756836	0.000457764	
6.47308	-0.0750732	0.000305176	
6.47308	-0.0750732	0	
6.47247	-0.0747681	0.000457764	
6.47247	-0.0753784	0.000305176	
6.47247	-0.0747681	0.000762939	
6.47308	-0.0753784	0.000610352	
6.47278	-0.0744629	0.000305176	
6.47247	-0.0756836	0.000305176	
6.47217	-0.0723267	0.000457764	
6.47308	-0.0701904	0.000457764	
6.47217	-0.0701904	0.000305176	
6.47278	-0.0701904	0.000152588	
6.47247	-0.0704956	0	
6.47247	-0.0708008	0.000305176	
6.47339	-0.0704956	0.000305176	
6.47247	-0.0708008	0.000305176	
6.47278	-0.0704956	0.000457764	
6.47278	-0.0680542	0.000762939	
6.47186	-0.065918	0.000610352	
6.47278	-0.0653076	0.000305176	
6.47247	-0.0650024	0.000152588	
6.47339	-0.0656128	0.000610352	
6.47308	-0.0656128	0.000305176	
6.47278	-0.0656128	0.000457764	
6.47308	-0.0662231	0.000152588	
6.47278	-0.062561	0.000305176	
6.47369	-0.0610352	0.000305176	
6.47308	-0.06073	0.000305176	
6.47339	-0.06073	0.000457764	
6.47278	-0.06073	0.000457764	
6.47278	-0.0604248	0.000305176	
6.47156	-0.0576782	0.000762939	
6.46942	-0.0552368	0.000457764	
6.4682	-0.0549316	0	
6.4679	-0.0558472	0.000305176	
6.46759	-0.055542	0.000610352	
6.4679	-0.0552368	0.000457764	
6.46759	-0.0534058	0.000305176	
6.4679	-0.0506592	0.000152588	
6.46759	-0.0506592	-0.000152588	
6.46729	-0.0512695	0.000457764	
6.46759	-0.0506592	0.000457764	
6.4682	-0.0482178	0.000305176	
6.46851	-0.0463867	0.000457764	
6.4682	-0.0460815	0.000762939	
6.4679	-0.045166	0.000305176	
6.46851	-0.043335	0.000152588	
6.4682	-0.0408936	0.000610352	
6.4679	-0.0408936	0.000457764	
6.46698	-0.0411987	0.000457764	
6.4679	-0.038147	0	
6.46759	-0.0360107	-0.000152588	
6.4682	-0.0357056	0.000152588	
6.46729	-0.0357056	0.000610352	
6.4682	-0.032959	0.000305176	
6.46759	-0.0314331	0.000457764	
6.46729	-0.0314331	0	
6.4679	-0.0311279	0.000762939	
6.46851	-0.0283813	0.000610352	
6.46759	-0.0268555	0.000305176	
6.4679	-0.0262451	0.000305176	
6.4679	-0.0262451	0.000457764	
6.4679	-0.0231934	0.000457764	
6.4679	-0.0219727	0.000305176	
6.46667	-0.0213623	0.000305176	
6.46423	-0.0189209	0	
6.46301	-0.0167847	0.000305176	
6.4624	-0.0164795	0.000610352	
6.46271	-0.0161743	0.000457764	
6.4621	-0.0134277	0.000152588	
6.46332	-0.0106812	0.000152588	
6.46332	-0.0112915	0.000915527	
6.46332	-0.00793457	0.000457764	
6.46271	-0.00701904	0.000762939	
6.46301	-0.00610352	0.000457764	
6.4624	-0.00335693	0	
6.46301	-0.00213623	0.000152588	
6.4624	-0.00152588	0.000457764	
6.46271	0.000305176	0.000610352	
6.4624	0.00244141	-0.000152588	
6.4624	0.00305176	0	
6.46271	0.00549316	0.000610352	
6.46362	0.00762939	0.000762939	
6.46301	0.00793457	0.000457764	
6.46362	0.0109863	0.000610352	
6.46271	0.0128174	0.000305176	
6.46301	0.0152588	0.000152588	
6.46271	0.017395	0.000305176	
6.46332	0.0183105	0.000152588	
6.4624	0.020752	0.000305176	
6.46271	0.0228882	0.000610352	
6.46179	0.0231934	0	
6.45905	0.0253296	0	
6.45874	0.0274658	0.000305176	
6.45844	0.0283813	0.000305176	
6.45782	0.0296021	0	
6.45752	0.0314331	0.000305176	
6.45782	0.03479	0.000762939	
6.45721	0.0375366	0.000457764	
6.45782	0.0372314	0.000152588	
6.45813	0.0408936	0.000305176	
6.45782	0.0424194	0.000762939	
6.45721	0.0457764	0.000305176	
6.45752	0.0469971	0.000305176	
6.45782	0.0469971	0.000152588	
6.45813	0.0497437	0.000457764	
6.45844	0.0524902	0.000152588	
6.45813	0.0543213	0.000457764	
6.45813	0.0567627	0.000305176	
6.45752	0.0579834	0.000457764	
6.45691	0.0601196	0.000915527	
6.45782	0.0619507	0.000610352	
6.45752	0.0650024	0.000152588	
6.45752	0.0671387	0.000152588	
6.45813	0.0668335	0.000457764	
6.4566	0.0689697	0.000305176	
6.45355	0.0714111	0.000762939	
6.45355	0.0747681	0.000610352	
6.45325	0.0765991	0.000305176	
6.45325	0.0765991	0.000457764	
6.45325	0.0796509	0.000305176	
6.45294	0.0805664	-0.000152588	
6.45325	0.0839233	0	
6.45355	0.0848389	0.000457764	
6.45386	0.0878906	0.000915527	
6.45264	0.090332	0.000152588	
6.45294	0.0912476	0.000152588	
6.45294	0.0933838	0.000610352	
6.45355	0.0958252	0.000305176	
6.45233	0.0979614	0.000152588	
6.45325	0.100098	0.000152588	
6.45294	0.100098	0.000152588	
6.45294	0.103149	0.000305176	
6.45325	0.10498	0.000610352	
6.45264	0.108032	0.000305176	
6.45294	0.110168	0.000457764	
6.45203	0.112915	0	
6.44928	0.115356	0.000305176	
6.44836	0.115662	0.000457764	
6.44775	0.118408	0.000457764	
6.44806	0.120239	0.000152588	
6.44806	0.122986	0.000457764	
6.44836	0.125732	0.000457764	
6.44836	0.125732	0.000305176	
6.44806	0.127258	0.000305176	
6.44806	0.129395	0.000457764	
6.44806	0.132446	0.000305176	
6.44836	0.134583	0.000457764	
6.44836	0.137634	0.000305176	
6.44867	0.139771	0.000305176	
6.44775	0.139771	0.000152588	
6.44745	0.142822	0.000762939	
6.44836	0.144653	0.000610352	
6.44836	0.147705	0.000305176	
6.44775	0.149536	0.000457764	
6.44714	0.149841	0.000305176	
6.44379	0.152588	0.000305176	
6.44348	0.154419	0.000457764	
6.44287	0.156555	0.000152588	
6.44318	0.158997	0.000305176	
6.44318	0.159607	0.000305176	
6.44348	0.162354	0.000305176	
6.44318	0.163269	0.000305176	
6.44318	0.166626	0.000457764	
6.44287	0.168457	0.000762939	
6.44287	0.168762	0.000305176	
6.44287	0.172424	0.000457764	
6.44348	0.17334	0.000762939	
6.44287	0.17334	0.000457764	
6.44318	0.176392	0.000610352	
6.44287	0.179138	0.000152588	
6.44287	0.181885	0	
6.44348	0.183411	0.000305176	
6.44226	0.184326	0.000305176	
6.43982	0.187073	0.000457764	
6.43799	0.188293	0	
6.43799	0.188904	0.000457764	
6.43829	0.191345	0.000610352	
6.4386	0.193787	0.000762939	
6.43829	0.196228	0.000305176	
6.43799	0.198364	0.000152588	
6.43829	0.198669	0.000610352	
6.43829	0.201111	0.000305176	
6.43829	0.203857	0.000610352	
6.4389	0.203552	0.000152588	
6.43799	0.205688	0.000305176	
6.4389	0.20874	0.000152588	
6.4386	0.20874	0.000305176	
6.43829	0.211182	0.000457764	
6.43829	0.213318	0.000305176	
6.43829	0.213623	0.000610352	
6.43738	0.21637	0.000457764	
6.43494	0.217896	0.000457764	
6.43341	0.218201	0.000152588	
6.43372	0.220642	0.000762939	
6.4328	0.223083	0.000610352	
6.4325	0.223083	0.000152588	
6.43341	0.224609	0.000457764	
6.4328	0.227966	0.000305176	
6.43341	0.227966	0.000152588	
6.43341	0.228577	0.000762939	
6.43372	0.231323	0.000305176	
6.43311	0.232239	0.000305176	
6.43372	0.232849	0.000457764	
6.43341	0.235291	0.000610352	
6.43311	0.237122	0.000610352	
6.43341	0.237732	0.000152588	
6.4328	0.238037	0.000457764	
6.4325	0.240479	0.000457764	
6.42944	0.242615	0.000457764	
6.42853	0.24231	0.000457764	
6.42792	0.242615	0.000152588	
6.42853	0.245667	0.000762939	
6.42822	0.246887	0.000457764	
6.42914	0.247803	0.000457764	
6.42914	0.247803	0.000305176	
6.42853	0.249939	0.000152588	
6.42883	0.25238	0.000305176	
6.42883	0.252686	0.000457764	
6.42853	0.252686	0.000152588	
6.42883	0.255432	0.000610352	
6.42853	0.257263	0.000915527	
6.42822	0.257874	0.000305176	
6.42822	0.257874	0.000305176	
6.42731	0.257263	0.000457764	
6.42456	0.260315	0.000457764	
6.42303	0.262146	0.000305176	
6.42334	0.262146	0.000305176	
6.42365	0.263062	0.000152588	
6.42334	0.262756	0.000457764	
6.42273	0.264893	0.000457764	
6.42365	0.267029	0.000457764	
6.42365	0.267029	0.000305176	
6.42395	0.267639	0.000457764	
6.42365	0.267334	0.000457764	
6.42334	0.270081	0.000305176	
6.42334	0.271301	0.000305176	
6.42273	0.272217	0.000305176	
6.42303	0.271606	0.000305176	
6.42303	0.272217	0.000457764	
6.42242	0.272217	0.000457764	
6.41907	0.272217	0.000152588	
6.41876	0.274658	0.000152588	
6.41815	0.2771	0.000610352	
6.41937	0.277405	0.000610352	
6.41846	0.27771	0.000152588	
6.41876	0.276794	0.000305176	
6.41846	0.2771	0.000457764	
6.41846	0.277405	0.000457764	
6.41846	0.27771	0.000305176	
6.41815	0.280151	0.000305176	
6.41937	0.281372	0.000152588	
6.41785	0.281982	0.000305176	
6.41876	0.282593	0.000152588	
6.41846	0.281982	0.000610352	
6.41724	0.281982	0.000305176	
6.4151	0.281677	0.000305176	
6.41357	0.281372	0.000610352	
6.41357	0.282593	0.000457764	
6.41235	0.282593	0.000457764	
6.41357	0.282288	0.000152588	
6.41327	0.285034	0.000762939	
6.41327	0.28717	0.000457764	
6.41357	0.28656	0.000610352	
6.41388	0.286865	0.000152588	
6.41357	0.28656	0.000305176	
6.41327	0.287476	0.000152588	
6.41357	0.286255	0.000610352	
6.41357	0.28656	0.000305176	
6.41266	0.28717	0.000152588	
6.41235	0.28717	0.000457764	
6.41022	0.28656	0.000610352	
6.4093	0.28717	0.000305176	
6.40869	0.28717	0.000610352	
6.40839	0.28656	0.000457764	
6.40808	0.286865	0.000305176	
6.40839	0.28717	0.000152588	
6.40869	0.28656	0.000457764	
6.409	0.286865	0.000457764	
6.409	0.286865	-0.000152588	
6.40839	0.28717	0.000457764	
6.40869	0.28717	0.000610352	
6.40869	0.286255	0.000152588	
6.40839	0.286255	0.000762939	
6.40839	0.28717	0.000457764	
6.40747	0.28717	0.000610352	
6.40442	0.286865	0.000457764	
6.40411	0.286865	0.000305176	
6.40289	0.286255	0.000457764	
6.40259	0.287476	0.000457764	
6.40411	0.28717	0.000305176	
6.40381	0.28656	0.000152588	
6.4032	0.28717	0.000457764	
6.40381	0.28717	0.000457764	
6.40411	0.28717	0.000152588	
6.4035	0.28717	0.000457764	
6.40289	0.28717	0.000305176	
6.40381	0.287476	0.000457764	
6.4035	0.284119	0.000457764	
6.40228	0.283203	0.000305176	
6.39984	0.282288	0.000457764	
6.39954	0.282288	0.000457764	
6.39862	0.282288	0.000457764	
6.39893	0.282593	0.000152588	
6.39893	0.281677	0.000305176	
6.39862	0.281677	0.000610352	
6.39893	0.282593	0	
6.39801	0.281982	0.000305176	
6.39893	0.281677	0.000305176	
6.39893	0.281982	0.000152588	
6.39862	0.279846	0.000610352	
6.39893	0.277405	0.000762939	
6.39893	0.276794	0.000305176	
6.3974	0.27771	0.000610352	
6.39465	0.2771	0.000762939	
6.39435	0.277405	0.000305176	
6.39374	0.277405	0	
6.39404	0.276794	0	
6.39404	0.27771	0.000457764	
6.39343	0.275269	0.000305176	
6.39374	0.272827	0.000305176	
6.39404	0.271912	0.000305176	
6.39343	0.272827	0.000305176	
6.39435	0.272217	0.000305176	
6.39313	0.272217	0.000610352	
6.39435	0.271301	0	
6.39282	0.271912	0.000457764	
6.39038	0.270081	0.000457764	
6.38916	0.267944	0	
6.38885	0.267944	0.000305176	
6.38885	0.267334	0.000305176	
6.38916	0.267639	0.000305176	
6.38885	0.267334	0.000457764	
6.38947	0.264587	0.000305176	
6.38855	0.263977	0.000152588	
6.38916	0.262756	0.000152588	
6.38947	0.262451	0.000305176	
6.38916	0.262451	0.00106812	
6.38855	0.262146	0.000457764	
6.38947	0.260315	0.000152588	
6.38794	0.258179	0.000457764	
6.38458	0.257568	0.000762939	
6.38428	0.256958	0.000610352	
6.38397	0.257874	0.000305176	
6.38397	0.257263	0	
6.38458	0.255127	0.000305176	
6.38428	0.253296	0.000152588	
6.38397	0.25238	0.000610352	
6.38367	0.253296	0.000915527	
6.38428	0.25238	0.000305176	
6.38367	0.250244	0.000457764	
6.38367	0.249023	0.000610352	
6.38367	0.248108	0.000457764	
6.38336	0.247803	0.000610352	
6.38031	0.247498	0.000305176	
6.37878	0.245667	0.000457764	
6.37909	0.243835	0.000152588	
6.37878	0.24292	0.000305176	
6.37909	0.24231	0.000152588	
6.37848	0.242615	0.000305176	
6.37878	0.240173	0.000457764	
6.37848	0.238953	0.000305176	
6.37756	0.238037	0.000610352	
6.37543	0.238037	0.000305176	
6.37482	0.238037	0.000457764	
6.3736	0.235901	0.000305176	
6.3739	0.23407	0.000610352	
6.37421	0.233459	0.000457764	
6.3739	0.233154	0.000457764	
6.3739	0.233154	-0.000152588	
6.37421	0.230103	0	
6.3739	0.228577	0	
6.3739	0.227661	0.000457764	
6.37299	0.227966	0.000305176	
6.37085	0.22583	0	
6.36932	0.223389	0.000457764	
6.36902	0.223083	0.000305176	
6.36871	0.223389	0.000457764	
6.36902	0.220947	0.000610352	
6.36902	0.218201	0.000305176	
6.36932	0.218201	0.000305176	
6.36963	0.21759	0.000152588	
6.36932	0.218201	0.000457764	
6.36963	0.215759	0.000305176	
6.36902	0.213623	0.000305176	
6.36902	0.213318	0.000305176	
6.3681	0.213623	0.000457764	
6.36536	0.211182	0.000152588	
6.36414	0.209045	0.000610352	
6.36414	0.208435	0	
6.36414	0.20813	0.000610352	
6.36444	0.206299	0.000457764	
6.36444	0.204163	0.000457764	
6.36414	0.203857	0.000305176	
6.36353	0.204163	0.000610352	
6.36475	0.2005	0	
6.36414	0.198364	0.000305176	
6.36414	0.19928	0.000152588	
6.36261	0.198669	0.000610352	
6.36047	0.195923	0.000152588	
6.35925	0.194397	0.000457764	
6.35925	0.194397	0.000457764	
6.35895	0.194397	0.000305176	
6.35895	0.191345	0.000610352	
6.35895	0.189209	0.000915527	
6.35925	0.188904	-0.000152588	
6.35895	0.189209	0.000610352	
6.35895	0.186157	0.000152588	
6.35925	0.184326	0.000457764	
6.35925	0.184021	0.000610352	
6.35803	0.184326	0.000152588	
6.35559	0.180969	0.000152588	
6.35406	0.179138	0.000152588	
6.35468	0.178833	0.000610352	
6.35406	0.178833	0.000305176	
6.35376	0.176392	0.000152588	
6.35437	0.174866	0.000457764	
6.35468	0.174561	0.000610352	
6.35437	0.174866	0.000152588	
6.35376	0.171814	0.000610352	
6.35406	0.169983	0.000610352	
6.35406	0.169067	0.000305176	
6.35345	0.168762	0.000610352	
6.35071	0.166626	0.000152588	
6.34979	0.165405	0.000305176	
6.34918	0.164795	0.000152588	
6.34949	0.163574	0.000305176	
6.34918	0.162048	0	
6.34979	0.159607	0.000457764	
6.34918	0.158691	-0.000152588	
6.34888	0.159607	0.000762939	
6.34949	0.157166	0.000610352	
6.34949	0.15564	0.000610352	
6.34918	0.154724	0.000305176	
6.34766	0.155029	0.000457764	
6.34521	0.152283	0.000152588	
6.3443	0.150146	0.000457764	
6.34369	0.149841	0.000152588	
6.3443	0.149536	0.000305176	
6.3443	0.14801	0.000305176	
6.3443	0.144958	0.000457764	
6.3443	0.144653	0.000305176	
6.34399	0.144958	0.000305176	
6.3443	0.142517	0.000305176	
6.34399	0.140991	0.000457764	
6.3443	0.140076	0.000610352	
6.3446	0.139771	0.000305176	
6.3446	0.137329	0.000457764	
6.34399	0.135803	0.000610352	
6.3446	0.135498	0.000305176	
6.34399	0.134888	0	
6.3446	0.132141	0.000152588	
6.34308	0.130615	0.000610352	
6.34033	0.130005	0.000610352	
6.33911	0.130005	0.000305176	
6.34003	0.127869	0.000152588	
6.33942	0.126038	0.000305176	
6.3382	0.124817	0.000915527	
6.33545	0.125427	0.000305176	
6.33484	0.125122	0.000457764	
6.33392	0.122681	0.000457764	
6.33453	0.120544	0.000610352	
6.33484	0.120544	0.000610352	
6.33423	0.119629	0.000457764	
6.33484	0.117798	0	
6.33453	0.115356	0.000152588	
6.33453	0.115051	0.000457764	
6.33423	0.115356	0.000457764	
6.33514	0.113525	0.000457764	
6.33301	0.110779	0.000305176	
6.33057	0.110779	0.000305176	
6.32965	0.109863	0.000762939	
6.32965	0.110474	0.000457764	
6.32935	0.108643	0.000762939	
6.32965	0.105591	0.000305176	
6.32965	0.105286	0.000305176	
6.33026	0.105896	0.000610352	
6.32965	0.105286	0.000152588	
6.32965	0.103455	0.000152588	
6.32996	0.100708	0.000152588	
6.32843	0.100403	0.000610352	
6.32568	0.100708	0.000152588	
6.32446	0.0976563	0.000457764	
6.32507	0.0961304	0.000762939	
6.32416	0.0958252	0.000610352	
6.32507	0.0958252	0.000457764	
6.32507	0.0958252	0.000610352	
6.32477	0.0927734	0.000457764	
6.32446	0.0915527	0.000457764	
6.32477	0.0897217	0.000457764	
6.32416	0.0906372	0	
6.32355	0.0909424	0	
6.32111	0.088501	0.000457764	
6.3205	0.0863647	0.000457764	
6.31927	0.0860596	0.000152588	
6.31958	0.0857544	0.000152588	
6.31927	0.0860596	0.000457764	
6.3205	0.085144	0.000457764	
6.31927	0.0839233	0.000457764	
6.32019	0.0817871	0.000305176	
6.32019	0.0805664	0.000457764	
6.31927	0.0811768	0.000305176	
6.31958	0.0808716	0.000915527	
6.31836	0.0796509	0.000152588	
6.31622	0.078125	0.000152588	
6.31531	0.0762939	0.000457764	
6.315	0.0765991	0.000305176	
6.3147	0.0762939	0.000305176	
6.31439	0.0747681	0.000305176	
6.31439	0.0723267	0.000152588	
6.3147	0.0726318	0.000610352	
6.315	0.0723267	0.000305176	
6.315	0.0720215	0.000762939	
6.31531	0.0723267	0.000457764	
6.31348	0.0701904	0.000305176	
6.31195	0.0668335	0.000305176	
6.30981	0.0665283	0.000305176	
6.30981	0.067749	0.000305176	
6.31042	0.0668335	0.000305176	
6.31012	0.0668335	0.000305176	
6.31042	0.0643921	0.000305176	
6.31073	0.0622559	0.000152588	
6.31042	0.0622559	0.000610352	
6.31012	0.0616455	0.000457764	
6.31012	0.0619507	0.000762939	
6.3092	0.0619507	0.000305176	
6.30676	0.0622559	0.000457764	
6.30554	0.0595093	0.000457764	
6.30524	0.0579834	0.000305176	
6.30524	0.0567627	0	
6.30554	0.0567627	0.000305176	
6.30524	0.0570679	-0.000152588	
6.30463	0.0579834	0.000305176	
6.30524	0.057373	0.000152588	
6.30524	0.0576782	0.000610352	
6.30524	0.0549316	0.000457764	
6.30432	0.0524902	0.000610352	
6.30188	0.0521851	0.000610352	
6.30035	0.0527954	0.000457764	
6.30066	0.0524902	0.000305176	
6.30066	0.0524902	0.000457764	
6.29974	0.0515747	0.000305176	
6.30035	0.0524902	0.000457764	
6.30096	0.0494385	0.000305176	
6.30066	0.0476074	0.000305176	
6.30035	0.0473022	0.000457764	
6.30005	0.0473022	0.000457764	
6.30096	0.0473022	0.000305176	
6.29974	0.0476074	0	
6.29578	0.0476074	0.000152588	
6.29578	0.0473022	0.000457764	
6.29486	0.0476074	0.000457764	
6.29517	0.045166	0.000610352	
6.29517	0.0430298	0.000457764	
6.29547	0.0421143	0.000610352	
6.29517	0.0421143	0.000457764	
6.29608	0.0424194	0.000305176	
6.29547	0.0424194	0.000305176	
6.29547	0.0424194	0.000457764	
6.29456	0.0427246	0.000305176	
6.2912	0.0424194	0.000152588	
6.29059	0.0405884	0.000152588	
6.29089	0.0378418	0.000457764	
6.28998	0.0375366	0.000457764	
6.29059	0.0372314	0.000762939	
6.29028	0.0375366	0.000610352	
6.29059	0.0378418	0.000610352	
6.29028	0.0375366	0.000305176	
6.29059	0.0372314	0.000457764	
6.28998	0.0375366	0.000152588	
6.28876	0.0378418	0	
6.28662	0.0372314	0	
6.2854	0.0350952	0.000152588	
6.2854	0.0332642	0.000152588	
6.28571	0.0317383	-0.000152588	
6.2854	0.0320435	0.000152588	
6.28571	0.0326538	0.000305176	
6.28571	0.0326538	0.000457764	
6.2854	0.032959	0.000305176	
6.28479	0.0323486	0.000762939	
6.2851	0.0326538	0.000610352	
6.28387	0.0326538	0.000457764	
6.28204	0.0326538	0.000152588	
6.28113	0.032959	0	
6.28113	0.0305176	0.000152588	
6.28021	0.0283813	0.000762939	
6.28082	0.0274658	0.000457764	
6.28052	0.0271606	0.000762939	
6.28082	0.0274658	0.000610352	
6.28082	0.0283813	0.000457764	
6.28082	0.0274658	0.000610352	
6.28021	0.0280762	0.000762939	
6.28021	0.0283813	0.000457764	
6.2796	0.0274658	0.000610352	
6.27747	0.0283813	0.000610352	
6.27594	0.027771	0.00106812	
6.27502	0.0271606	0.000305176	
6.27594	0.0274658	0	
6.27533	0.0253296	0.000305176	
6.27563	0.0228882	0.000152588	
6.27563	0.022583	0.000457764	
6.27594	0.0228882	-0.000152588	
6.27594	0.0234985	0.000610352	
6.27563	0.0228882	0.000457764	
6.27472	0.0231934	0.000457764	
6.27228	0.0234985	0.000610352	
6.27136	0.022583	0.000305176	
6.27075	0.0228882	0.000152588	
6.27075	0.022583	0	
6.27075	0.0228882	0.000152588	
6.27075	0.0222778	0.000152588	
6.27136	0.0228882	-0.000152588	
6.27136	0.0228882	0.000457764	
6.27106	0.0231934	0.000457764	
6.27075	0.0231934	0.000457764	
6.27014	0.0201416	0.000305176	
6.26709	0.0189209	0.000305176	
6.26556	0.0189209	0.000305176	
6.26617	0.0183105	0.000457764	
6.26587	0.0180054	0.000305176	
6.26617	0.0183105	0.000305176	
6.26587	0.0177002	0.000610352	
6.26526	0.0183105	0.000610352	
6.26587	0.0177002	0.000305176	
6.26526	0.0177002	0.000152588	
6.26556	0.0177002	0.000457764	
6.26617	0.017395	0.000457764	
6.26465	0.0180054	0.000457764	
6.2616	0.0177002	0.000457764	
6.26099	0.0180054	0	
6.26129	0.0177002	0.000610352	
6.26068	0.0177002	0.000305176	
6.26099	0.0183105	0.000457764	
6.26038	0.0177002	0.000152588	
6.26038	0.015564	0.000457764	
6.26099	0.0128174	0.000762939	
6.2616	0.012207	0.000457764	
6.26068	0.0128174	0.000457764	
6.26007	0.0131226	0.000152588	
6.2561	0.0128174	0.000152588	
6.2561	0.0131226	0.000152588	
6.25549	0.0134277	0.000457764	
6.25519	0.0128174	0.000457764	
6.25641	0.0131226	0.000457764	
6.2561	0.0131226	0.000610352	
6.2561	0.0134277	0.000457764	
6.2558	0.0134277	0.000457764	
6.2561	0.0125122	0.000305176	
6.2558	0.0125122	0.000610352	
6.25458	0.0128174	0.000457764	
6.25214	0.0134277	0	
6.25092	0.0128174	0	
6.25092	0.0134277	0.000610352	
6.25061	0.0134277	0.000305176	
6.25122	0.0128174	0.000457764	
6.25092	0.010376	0.000305176	
6.25153	0.00823975	0.000305176	
6.25061	0.00823975	0.000457764	
6.25061	0.00823975	0.000457764	
6.25092	0.00793457	0.000152588	
6.25122	0.00793457	0.000305176	
6.25061	0.00793457	0	
6.24756	0.00823975	0	
6.24634	0.00793457	0.000305176	
6.24634	0.00762939	0.000305176	
6.24603	0.00793457	0.000305176	
6.24603	0.00762939	0.000610352	
6.24603	0.00793457	0.000305176	
6.24573	0.00793457	0.000305176	
6.24603	0.00793457	0.000457764	
6.24573	0.00793457	0.000457764	
6.24603	0.00854492	0.000610352	
6.24451	0.00793457	0.000457764	
6.24268	0.00823975	0.000305176	
6.24146	0.00732422	0.000305176	
6.24115	0.00793457	0.000305176	
6.24084	0.0088501	0.000152588	
6.24084	0.00579834	0.000152588	
6.24084	0.00335693	0.000152588	
6.24115	0.00274658	0	
6.24084	0.00335693	0.000305176	
6.24115	0.00274658	0	
6.24146	0.00335693	0.000305176	
6.24115	0.00366211	0.000457764	
6.23962	0.00305176	0.000152588	
6.23718	0.00335693	0.000762939	
6.23627	0.00305176	0.000305176	
6.23596	0.00335693	0.000152588	
6.23596	0.00274658	0.000610352	
6.23596	0.00274658	0.000305176	
6.23596	0.00305176	0.000305176	
6.23627	0.00335693	0	
6.23657	0.00305176	0.000152588	
6.23627	0.00335693	0.000152588	
6.23688	0.00305176	0.000152588	
6.23688	0.00274658	0.000152588	
6.23566	0.00305176	0.000305176	
6.2326	0.000915527	0.000610352	
6.23199	-0.0012207	0.000915527	
6.23077	-0.0012207	0.000305176	
6.23169	-0.00152588	0.000305176	
6.23138	-0.00152588	0.000305176	
6.23108	-0.00213623	0.000457764	
6.23138	-0.000915527	0.000152588	
6.23108	-0.00152588	0.000152588	
6.23169	-0.00152588	0.000305176	
6.23138	-0.00213623	0.000305176	
6.23108	-0.000915527	0.000305176	
6.23169	-0.00183105	0.000152588	
6.23138	-0.0012207	0.000152588	
6.23108	-0.000915527	0.000762939	
6.23138	-0.0012207	0.000457764	
6.23138	-0.00183105	0.000610352	
6.22925	-0.00152588	0.000610352	
6.22772	-0.00152588	0.000457764	
6.22711	-0.00183105	0.000610352	
6.2265	-0.00366211	0.000305176	
6.2262	-0.00579834	0.000152588	
6.22681	-0.00610352	0	
6.22711	-0.00579834	0.000305176	
6.22467	-0.00579834	0.000305176	
6.22284	-0.00671387	0.000457764	
6.22131	-0.00701904	0	
6.22101	-0.00610352	0.000610352	
6.22131	-0.00579834	0.000610352	
6.22101	-0.00701904	0.000457764	
6.22131	-0.00640869	0.000457764	
6.2207	-0.00610352	0.000610352	
6.22192	-0.00640869	0.000610352	
6.22131	-0.00671387	0.000152588	
6.22101	-0.00640869	0.000152588	
6.22162	-0.00701904	0.000152588	
6.2204	-0.00610352	0.000305176	
6.21796	-0.00915527	0.000305176	
6.21674	-0.0109863	0.000152588	
6.21765	-0.0115967	0.000305176	
6.21643	-0.0109863	0.000457764	
6.21643	-0.0109863	0.000457764	
6.21643	-0.0112915	0.000762939	
6.21643	-0.0112915	0.000305176	
6.21643	-0.0112915	0.000305176	
6.21613	-0.0112915	0.000457764	
6.21735	-0.0109863	0.000305176	
6.21643	-0.0109863	0.000305176	
6.2146	-0.0112915	0.000305176	
6.21246	-0.0115967	0.000305176	
6.21185	-0.0112915	0.000305176	
6.21155	-0.0106812	0.000152588	
6.21124	-0.0112915	0.000305176	
6.21155	-0.0137329	0.000305176	
6.21124	-0.015564	0.000915527	
6.21216	-0.0164795	0.000457764	
6.21124	-0.0164795	0.000152588	
6.21155	-0.0158691	0.000762939	
6.21155	-0.0164795	0.000457764	
6.21033	-0.0164795	0.000457764	
6.20819	-0.015564	0	
6.20667	-0.0161743	0.000610352	
6.20636	-0.0164795	0.000457764	
6.20667	-0.0164795	0.000305176	
6.20667	-0.015564	0.000305176	
6.20636	-0.0161743	0.000305176	
6.20636	-0.0161743	0.000152588	
6.20667	-0.0158691	0.000305176	
6.20697	-0.0183105	0.000610352	
6.20636	-0.0201416	0.000457764	
6.20636	-0.0213623	0.000152588	
6.20667	-0.0216675	0.000305176	
6.20605	-0.0210571	0.000457764	
6.20575	-0.0213623	0.000305176	
6.20514	-0.0210571	0.000305176	
6.20239	-0.020752	0.000152588	
6.20148	-0.0210571	0	
6.20087	-0.0216675	0.000457764	
6.20117	-0.0210571	0.000152588	
6.20178	-0.0210571	0.000610352	
6.20117	-0.020752	0.000457764	
6.20178	-0.0204468	0.000610352	
6.20209	-0.0213623	0.000762939	
6.20087	-0.0238037	0.000305176	
6.20117	-0.0259399	0.000457764	
6.20148	-0.0262451	0.000762939	
6.19995	-0.0262451	0.000305176	
6.19751	-0.0262451	0.000457764	
6.19629	-0.0262451	0.000152588	
6.19629	-0.0253296	0.000457764	
6.19629	-0.0262451	0.000457764	
6.1969	-0.0265503	0.000152588	
6.19629	-0.0259399	0.000152588	
6.1969	-0.0256348	0.000152588	
6.19629	-0.0256348	0.000915527	
6.1969	-0.0265503	0.000610352	
6.19598	-0.0259399	0.000915527	
6.19537	-0.027771	0.000915527	
6.19324	-0.0308228	0.000457764	
6.19171	-0.0308228	0.000457764	
6.19171	-0.0311279	0	
6.19141	-0.0302124	0.000152588	
6.19171	-0.0311279	0.000305176	
6.19232	-0.0311279	0	
6.19171	-0.0314331	0.000457764	
6.19202	-0.0314331	0.000152588	
6.19141	-0.0314331	0.000152588	
6.19049	-0.0305176	0.000762939	
6.18835	-0.0311279	0.000610352	
6.18713	-0.0311279	0.000305176	
6.18591	-0.032959	0.000305176	
6.18652	-0.03479	0.000457764	
6.18591	-0.0354004	0.000610352	
6.18652	-0.0357056	0.000305176	
6.18652	-0.0360107	0	
6.18683	-0.0357056	0.000152588	
6.18683	-0.0357056	0	
6.18713	-0.0363159	0.000305176	
6.18713	-0.0360107	0	
6.1853	-0.0357056	0.000152588	
6.18225	-0.0357056	0.000610352	
6.18164	-0.0360107	0.000457764	
6.18073	-0.0357056	0.000305176	
6.18164	-0.038147	0.000305176	
6.18103	-0.0405884	0.000762939	
6.18164	-0.0408936	0.000457764	
6.18225	-0.0415039	0.000152588	
6.18134	-0.0411987	0.000305176	
6.18225	-0.0405884	0.000305176	
6.18073	-0.0408936	0.000305176	
6.18195	-0.0411987	0.000152588	
6.18073	-0.0411987	0.000305176	
6.17767	-0.0411987	0.000305176	
6.17676	-0.0408936	0.000457764	
6.17676	-0.0405884	0.000762939	
6.17706	-0.0408936	0.000762939	
6.17706	-0.043335	0.000305176	
6.17645	-0.045166	0.000762939	
6.17645	-0.0454712	0.000762939	
6.17706	-0.0460815	0.000457764	
6.17676	-0.0463867	0.000305176	
6.17706	-0.0454712	0.000152588	
6.17584	-0.0457764	0.000152588	
6.17523	-0.0460815	0	
6.17371	-0.0460815	0.000610352	
6.17188	-0.0454712	0.000152588	
6.17188	-0.0457764	0.000305176	
6.17249	-0.0463867	0.000762939	
6.17249	-0.0454712	0.000610352	
6.17126	-0.0482178	0.000610352	
6.17279	-0.050354	0.000457764	
6.17188	-0.0500488	0.000762939	
6.17157	-0.0500488	0.000610352	
6.17249	-0.050354	0	
6.17218	-0.0509644	0.000152588	
6.17035	-0.0506592	0.000152588	
6.16821	-0.0506592	0	
6.1673	-0.0506592	0.000457764	
6.1673	-0.0509644	0.000305176	
6.16699	-0.0509644	0.000305176	
6.1673	-0.0509644	0.000457764	
6.16699	-0.0506592	0.000762939	
6.1673	-0.0531006	0.000610352	
6.1673	-0.0546265	0.000152588	
6.16699	-0.0552368	0.000305176	
6.1676	-0.0558472	0.000457764	
6.16699	-0.055542	0.000457764	
6.16608	-0.0552368	0.000610352	
6.16364	-0.055542	0.000305176	
6.16241	-0.0546265	0.000305176	
6.16241	-0.0552368	0.000305176	
6.16211	-0.0552368	0.000305176	
6.16241	-0.0552368	0.000305176	
6.16211	-0.055542	0.000610352	
6.16272	-0.055542	0.000762939	
6.1618	-0.0579834	0.000915527	
6.16211	-0.0601196	0.000152588	
6.16241	-0.06073	0.000305176	
6.16089	-0.0601196	0.000457764	
6.15814	-0.06073	0.000457764	
6.15784	-0.0604248	0.000152588	
6.15692	-0.0601196	0.000152588	
6.15723	-0.0604248	0.000152588	
6.15723	-0.0610352	0.000457764	
6.15692	-0.06073	0.000305176	
6.15723	-0.06073	0.000305176	
6.15723	-0.0604248	0	
6.15723	-0.0604248	0.000610352	
6.15753	-0.0601196	0.000610352	
6.15692	-0.062561	0.000610352	
6.15631	-0.0646973	0.000152588	
6.15417	-0.0662231	0.000915527	
6.15295	-0.0650024	0.000457764	
6.15234	-0.0656128	0.000152588	
6.15295	-0.0653076	0.000152588	
6.15204	-0.0656128	-0.000152588	
6.15143	-0.0653076	0.000305176	
6.15295	-0.0650024	0.000762939	
6.15204	-0.0656128	0.000305176	
6.15204	-0.0646973	0.000152588	
6.15173	-0.0653076	0.000762939	
6.15112	-0.0656128	0.000457764	
6.14929	-0.0650024	0.000305176	
6.14777	-0.0656128	0.000152588	
6.14777	-0.0653076	0.000457764	
6.14807	-0.0680542	0.000762939	
6.14746	-0.0695801	0.000305176	
6.14716	-0.0701904	0.000610352	
6.14777	-0.0704956	0.000152588	
6.14716	-0.0704956	0.000305176	
6.14807	-0.0708008	0.000457764	
6.14746	-0.0701904	0.000305176	
6.14777	-0.0701904	0.000305176	
6.14624	-0.0698853	0.000305176	
6.1438	-0.0695801	0.000762939	
6.14288	-0.0698853	0.000762939	
6.14258	-0.0701904	0.000305176	
6.14197	-0.0698853	0.000610352	
6.14227	-0.0704956	0.000305176	
6.14258	-0.0704956	0.000457764	
6.14258	-0.0704956	0.000152588	
6.14258	-0.0704956	0.000457764	
6.14288	-0.0726318	0.000457764	
6.14258	-0.0747681	0.000305176	
6.14166	-0.0750732	0.000305176	
6.13922	-0.0747681	0.000152588	
6.138	-0.0753784	0.000457764	
6.13678	-0.0753784	0.000610352	
6.138	-0.0750732	0.000610352	
6.13708	-0.0747681	0.000915527	
6.13708	-0.0750732	0.000457764	
6.13739	-0.0753784	0.000610352	
6.138	-0.0753784	0.000915527	
6.1377	-0.0750732	0	
6.13647	-0.0753784	0	
6.13403	-0.0759888	0.000305176	
6.13312	-0.0750732	0.000305176	
6.13312	-0.0756836	0.000305176	
6.13281	-0.0753784	0.000457764	
6.13281	-0.0744629	0.000457764	
6.13312	-0.0750732	0.000762939	
6.13281	-0.0750732	0.000610352	
6.13251	-0.0747681	0.000610352	
6.1319	-0.0772095	0.000457764	
6.12885	-0.0793457	0.000457764	
6.12762	-0.0796509	0.000610352	
6.12732	-0.0799561	0.000152588	
6.12823	-0.0796509	0	
6.12762	-0.0799561	0.000152588	
6.12823	-0.0802612	0.000152588	
6.12854	-0.0802612	0.000152588	
6.12854	-0.0805664	0.000305176	
6.12793	-0.0805664	0.000152588	
6.12732	-0.0799561	0.000152588	
6.12793	-0.0799561	0.000610352	
6.12793	-0.0805664	0.000915527	
6.12732	-0.0802612	0.000305176	
6.12732	-0.0799561	0.000305176	
6.12762	-0.0799561	0.000610352	
6.12762	-0.0796509	0.000457764	
6.1261	-0.0802612	0.000457764	
6.12396	-0.0799561	0.000152588	
6.12244	-0.0799561	0.000152588	
6.12274	-0.0796509	0.000152588	
6.12305	-0.0796509	0.000457764	
6.12305	-0.0805664	0.000457764	
6.12213	-0.0799561	0.000305176	
6.12274	-0.0799561	0.00106812	
6.12274	-0.0796509	0.000610352	
6.12305	-0.0790405	0.000305176	
6.12213	-0.0799561	0.000610352	
6.12183	-0.0827026	0.000305176	
6.11908	-0.0836182	0.000610352	
6.11786	-0.0854492	0.000610352	
6.11816	-0.0854492	-0.000152588	
6.11755	-0.0842285	0	
6.11755	-0.085144	0.000152588	
6.11786	-0.0845337	0.000152588	
6.11847	-0.0857544	0.000610352	
6.11786	-0.0848389	0.000305176	
6.11786	-0.085144	0.000762939	
6.11816	-0.0848389	0.000610352	
6.11725	-0.0848389	0.000762939	
6.1145	-0.0845337	0.000152588	
6.11237	-0.0842285	0.000152588	
6.11328	-0.085144	0.000457764	
6.11237	-0.0848389	0.000305176	
6.11237	-0.085144	0.000610352	
6.11267	-0.0839233	0.000305176	
6.11267	-0.0845337	0.000305176	
6.11328	-0.085144	0.000305176	
6.11328	-0.0848389	0.000305176	
6.11267	-0.0848389	0.000305176	
6.11145	-0.0848389	0.000305176	
6.10962	-0.0848389	0.00106812	
6.1084	-0.085144	0.000457764	
6.10748	-0.0848389	0.000457764	
6.10748	-0.0848389	0.000305176	
6.10779	-0.085144	0.000610352	
6.1084	-0.0845337	0.000305176	
6.10748	-0.085144	0.000305176	
6.10748	-0.0842285	0.000305176	
6.10779	-0.085144	0.000305176	
6.10748	-0.0854492	0	
6.10687	-0.0845337	0.000305176	
6.10413	-0.085144	0.000457764	
6.10321	-0.0848389	0.000610352	
6.10229	-0.0845337	0.000762939	
6.10291	-0.0845337	0.000610352	
6.10229	-0.0845337	0.000305176	
6.10352	-0.0848389	0.000610352	
6.10291	-0.085144	0.000457764	
6.1026	-0.0845337	0.000457764	
6.1026	-0.0848389	0.000152588	
6.10291	-0.0845337	0.000152588	
6.09955	-0.085144	0	
6.09863	-0.085144	0.000305176	
6.09741	-0.085144	0.000610352	
6.09741	-0.0842285	0.000152588	
6.09772	-0.0854492	0.000152588	
6.09772	-0.0842285	0.000610352	
6.09772	-0.0848389	0.000610352	
6.09772	-0.0845337	0.000457764	
6.09863	-0.0854492	0.000152588	
6.0968	-0.0857544	0.000610352	
6.09375	-0.0872803	0.000457764	
6.09344	-0.0897217	0.000152588	
6.09314	-0.0894165	-0.000152588	
6.09314	-0.0900269	0	
6.09314	-0.0897217	0.000305176	
6.09314	-0.090332	0.000457764	
6.09375	-0.0906372	0.000152588	
6.09375	-0.0897217	0.000152588	
6.09192	-0.090332	0.000152588	
6.09314	-0.0897217	0.000762939	
6.09161	-0.0894165	0.000762939	
6.08948	-0.0894165	0.000457764	
6.08856	-0.0900269	0.000457764	
6.08795	-0.0897217	0.000152588	
6.08795	-0.0900269	0.000305176	
6.08795	-0.090332	0.000152588	
6.08826	-0.0900269	0.000152588	
6.08826	-0.0897217	0.000152588	
6.08795	-0.0900269	0.000305176	
6.08887	-0.0900269	0.000305176	
6.08734	-0.0897217	0.000457764	
6.08459	-0.0897217	0.000152588	
6.08307	-0.090332	0.000915527	
6.08307	-0.0897217	0.000457764	
6.08337	-0.0897217	0.000152588	
6.08337	-0.0894165	0.000305176	
6.08246	-0.090332	0.000610352	
6.08368	-0.090332	0.000305176	
6.08276	-0.090332	0.000152588	
6.08307	-0.0894165	-0.000152588	
6.08185	-0.0897217	0.000457764	
6.07971	-0.0900269	0.000305176	
6.07788	-0.0888062	0.000457764	
6.07819	-0.0900269	0	
6.07819	-0.0897217	0.000152588	
6.07819	-0.0894165	0.000610352	
6.07819	-0.0897217	0.000305176	
6.07819	-0.0897217	0.000457764	
6.07819	-0.0897217	0	
6.0788	-0.0897217	0.000457764	
6.07727	-0.0897217	0.000610352	
6.07422	-0.0897217	0.000305176	
6.0733	-0.0894165	0.000152588	
6.07361	-0.0897217	0.000305176	
6.07361	-0.0869751	0.000152588	
6.073	-0.0854492	0	
6.0733	-0.0848389	0.000152588	
6.0733	-0.085144	0.000305176	
6.07391	-0.085144	0.000305176	
6.073	-0.0848389	0.000610352	
6.07239	-0.0857544	0.000610352	
6.06995	-0.0848389	0.000915527	
6.0675	-0.0854492	0.000152588	
6.06781	-0.085144	0.000610352	
6.06812	-0.0848389	-0.000152588	
6.06873	-0.0848389	0.000762939	
6.06812	-0.0848389	0.000305176	
6.06842	-0.0848389	0.000152588	
6.06842	-0.0845337	0	
6.0675	-0.085144	0.000457764	
6.06476	-0.0854492	0.000457764	
6.06384	-0.0848389	0.000610352	
6.06323	-0.0848389	0.000762939	
6.06445	-0.0848389	0.000457764	
6.06384	-0.085144	0.000457764	
6.06323	-0.085144	0.000610352	
6.06384	-0.0842285	0.000457764	
6.06384	-0.0854492	0.000610352	
6.06354	-0.0842285	0.000305176	
6.06232	-0.0854492	0	
6.05896	-0.0848389	0.000152588	
6.05804	-0.085144	0.000305176	
6.05927	-0.0848389	0.000457764	
6.05865	-0.0848389	0.000152588	
6.05835	-0.0842285	0	
6.05804	-0.085144	0.000457764	
6.05865	-0.085144	0.000915527	
6.05865	-0.0845337	0.000305176	
6.05865	-0.0848389	0.000152588	
6.05682	-0.0848389	0.000457764	
6.0553	-0.085144	0.000610352	
6.05347	-0.0848389	0.000305176	
6.05347	-0.0854492	0.000152588	
6.05347	-0.0845337	0.000305176	
6.05408	-0.0848389	0.000305176	
6.05286	-0.0854492	0.000457764	
6.05469	-0.0848389	0.000152588	
6.05347	-0.085144	0.000305176	
6.05225	-0.085144	0.000305176	
6.0498	-0.0848389	0.00106812	
6.04828	-0.0845337	0.000610352	
6.04889	-0.0845337	0.000305176	
6.04858	-0.0845337	0.000152588	
6.04828	-0.0845337	0.000457764	
6.04858	-0.0854492	0.000457764	
6.04858	-0.0854492	0.000457764	
6.04858	-0.085144	0.000305176	
6.04828	-0.0848389	0.000457764	
6.04767	-0.0848389	0.000152588	
6.04431	-0.0854492	0.000305176	
6.04309	-0.0848389	0.000152588	
6.04401	-0.0848389	0.000305176	
6.0437	-0.0845337	0.000457764	
6.0434	-0.0845337	0.000305176	
6.0437	-0.085144	0.000305176	
6.0434	-0.085144	0.000610352	
6.0434	-0.0845337	0.000305176	
6.04248	-0.0848389	0.000152588	
6.03943	-0.085144	0	
6.03882	-0.0848389	0.000152588	
6.03851	-0.0845337	0.000305176	
6.03851	-0.0854492	0.000457764	
6.03882	-0.0854492	0.000305176	
6.03882	-0.085144	0.000152588	
6.03821	-0.085144	0.000305176	
6.03912	-0.0845337	0.000457764	
6.03821	-0.0820923	0.000762939	
6.03546	-0.0802612	0.000762939	
6.03394	-0.0799561	0.000152588	
6.03424	-0.0799561	0.000610352	
6.03363	-0.0799561	0.000457764	
6.03424	-0.0802612	0.000610352	
6.03424	-0.0799561	0.000305176	
6.03363	-0.0802612	0.000152588	
6.03302	-0.0799561	0.000305176	
6.03271	-0.0799561	0.000610352	
6.02966	-0.0796509	0.000152588	
6.02905	-0.0799561	0.000305176	
6.02875	-0.0799561	0.000457764	
6.02905	-0.0802612	0.000915527	
6.02875	-0.0799561	0.000457764	
6.02905	-0.0799561	0.000610352	
6.02875	-0.0799561	0.000457764	
6.02875	-0.0796509	0.000457764	
6.02783	-0.0796509	0.000457764	
6.02509	-0.0802612	0.000152588	
6.02386	-0.0802612	0.000305176	
6.02386	-0.0796509	0.000152588	
6.02417	-0.0802612	0.000152588	
6.02356	-0.0799561	0.000457764	
6.02417	-0.0799561	0.000305176	
6.02356	-0.0802612	0.000610352	
6.02325	-0.0799561	0.000762939	
6.02325	-0.0796509	0.000305176	
6.02264	-0.0802612	0.000305176	
6.02051	-0.0799561	0.000762939	
6.01898	-0.0799561	0.000762939	
6.01898	-0.0799561	0.000457764	
6.01898	-0.0796509	0.000457764	
6.01837	-0.0799561	-0.000152588	
6.01929	-0.0790405	0.000610352	
6.01929	-0.0802612	0.000152588	
6.01868	-0.0796509	0.000152588	
6.01776	-0.0802612	0.000457764	
6.01501	-0.0799561	0.000305176	
6.0141	-0.0799561	0.000457764	
6.01379	-0.0796509	0.000762939	
6.0141	-0.0799561	0.000457764	
6.0144	-0.0802612	0.000457764	
6.0144	-0.0796509	0.000152588	
6.01471	-0.0799561	0.000610352	
6.0141	-0.0799561	0.000610352	
6.0141	-0.0799561	0.000152588	
6.01288	-0.0799561	0.000152588	
6.01013	-0.0796509	0.000305176	
6.00952	-0.0778198	0.000152588	
6.00922	-0.0759888	0.000610352	
6.00922	-0.0750732	0.000152588	
6.00861	-0.0747681	0.000457764	
6.00891	-0.0747681	0.000762939	
6.00891	-0.0753784	0.000762939	
6.00922	-0.0750732	0.000610352	
6.0083	-0.0753784	0.000457764	
6.00464	-0.0753784	0.000610352	
6.00403	-0.0753784	0.000457764	
6.00403	-0.0759888	0.000152588	
6.00342	-0.0750732	0.000457764	
6.00494	-0.0753784	0.000305176	
6.00403	-0.0750732	0.000152588	
6.00433	-0.0756836	0.000457764	
6.00281	-0.0750732	0.000305176	
6.00037	-0.0753784	0.000762939	
5.99945	-0.0753784	0.000610352	
5.99976	-0.0741577	0.000457764	
5.99945	-0.0750732	0.000457764	
5.99915	-0.0753784	0.000457764	
5.99976	-0.0750732	0.000915527	
5.99915	-0.0756836	0.000457764	
5.99945	-0.0750732	0.000305176	
5.99823	-0.0750732	0.000305176	
5.99548	-0.0753784	0.000152588	
5.99548	-0.0747681	0.000152588	
5.99396	-0.0744629	0.000305176	
5.99426	-0.0750732	0.000152588	
5.99426	-0.0747681	0.000610352	
5.99426	-0.0753784	0.000305176	
5.99396	-0.0753784	0.000762939	
5.99457	-0.0750732	0.000457764	
5.99365	-0.0753784	0.000152588	
5.99121	-0.0747681	0.000457764	
5.98999	-0.0750732	0.000457764	
5.98907	-0.0753784	0.000457764	
5.98938	-0.0750732	0	
5.98907	-0.0753784	0.000152588	
5.98907	-0.0750732	0.000152588	
5.98938	-0.0750732	0	
5.98907	-0.0753784	0.000457764	
5.98846	-0.0753784	0.000305176	
5.98572	-0.0750732	0.000305176	
5.9848	-0.0753784	0.000762939	
5.98389	-0.0750732	0.000457764	
5.9848	-0.0753784	0.000457764	
5.98541	-0.0750732	0.000762939	
5.9845	-0.0753784	0.000610352	
5.9848	-0.0750732	0.000457764	
5.98419	-0.0750732	0.000152588	
5.98358	-0.0747681	0.000305176	
5.98022	-0.0753784	0.000305176	
5.97931	-0.0741577	0.000305176	
5.97961	-0.0759888	0.000457764	
5.98022	-0.0753784	0.000305176	
5.97992	-0.0750732	0.000152588	
5.97961	-0.0747681	0.000915527	
5.97992	-0.0753784	0.000457764	
5.97839	-0.0750732	0.000152588	
5.97595	-0.0750732	0.000152588	
5.97504	-0.0723267	0.000762939	
5.97473	-0.071106	0.000305176	
5.97443	-0.0698853	0.000457764	
5.97504	-0.0701904	0	
5.97473	-0.0704956	0.000305176	
5.97473	-0.0704956	0.000305176	
5.97443	-0.0701904	0.000305176	
5.97351	-0.0708008	0.000610352	
5.97137	-0.0701904	0.000762939	
5.97046	-0.0704956	0.000152588	
5.96985	-0.0701904	0.000610352	
5.96924	-0.0698853	0.000457764	
5.96985	-0.071106	0.000457764	
5.97015	-0.0701904	0.000610352	
5.96954	-0.0704956	0.000457764	
5.97015	-0.0701904	0.000457764	
5.96863	-0.0704956	0.000152588	
5.96527	-0.0704956	0.000152588	
5.96497	-0.0698853	0.000305176	
5.96375	-0.0695801	0.000152588	
5.96466	-0.0704956	0.000610352	
5.96558	-0.0701904	0.000457764	
5.96466	-0.0704956	0.000305176	
5.96558	-0.0701904	0.000762939	
5.96405	-0.0698853	0.000610352	
5.96375	-0.0708008	0.000610352	
5.9613	-0.0704956	0.000457764	
5.95978	-0.0701904	0.000457764	
5.95978	-0.0704956	0.000457764	
5.95917	-0.0704956	-0.000152588	
5.95917	-0.0701904	0.000457764	
5.95978	-0.0701904	0.000152588	
5.95978	-0.0698853	-0.000152588	
5.95886	-0.0708008	0.000457764	
5.95642	-0.0701904	0.000610352	
5.9552	-0.0698853	0.000305176	
5.95398	-0.0701904	0.000762939	
5.95459	-0.0701904	0.000457764	
5.95459	-0.0701904	0.000305176	
5.9549	-0.0698853	0.000305176	
5.9549	-0.0698853	0.000762939	
5.9549	-0.0698853	0.000457764	
5.95337	-0.0701904	0	
5.95062	-0.0701904	0.000152588	
5.95001	-0.0701904	0.000152588	
5.9494	-0.0698853	0.000610352	
5.94971	-0.0701904	0.000457764	
5.95032	-0.0698853	0.000457764	
5.9494	-0.0701904	0.000305176	
5.95001	-0.0701904	0.000610352	
5.95032	-0.0701904	0.000610352	
5.94879	-0.0701904	0.000915527	
5.94604	-0.0704956	0	
5.94543	-0.0704956	0.000305176	
5.94543	-0.0698853	0.000457764	
5.94391	-0.0708008	0.000152588	
5.94543	-0.0708008	0.000457764	
5.94513	-0.0704956	0.000305176	
5.94543	-0.0704956	0.000610352	
5.94513	-0.0698853	0.000152588	
5.94391	-0.0701904	0.000305176	
5.94116	-0.0698853	0.000305176	
5.93994	-0.0708008	0.000305176	
5.93964	-0.0701904	0.00106812	
5.94055	-0.0692749	0.000457764	
5.93964	-0.0708008	0.000457764	
5.93964	-0.0701904	0.000305176	
5.93964	-0.0701904	0.000457764	
5.93903	-0.0701904	0.000457764	
5.93628	-0.0704956	0.000305176	
5.93475	-0.0708008	0.000152588	
5.93506	-0.0701904	0.000152588	
5.93536	-0.0701904	0.000305176	
5.93475	-0.0701904	0.000305176	
5.93536	-0.0698853	0.000152588	
5.93536	-0.0701904	0.000305176	
5.93506	-0.0698853	0.000305176	
5.93414	-0.0704956	0.000457764	
5.93079	-0.0704956	0.000610352	
5.93048	-0.0708008	0.000457764	
5.93018	-0.0708008	0.000610352	
5.93048	-0.0701904	0.000610352	
5.93018	-0.0704956	0.000152588	
5.92987	-0.0708008	0.000152588	
5.92987	-0.0704956	0.000152588	
5.93018	-0.0695801	0.000152588	
5.92957	-0.0701904	0.000305176	
5.9259	-0.0704956	0.000152588	
5.9259	-0.0701904	0.000457764	
5.9256	-0.071106	0.000457764	
5.9256	-0.0704956	0.000915527	
5.92529	-0.0698853	0.000610352	
5.92529	-0.0708008	0.000610352	
5.92529	-0.0701904	0.000305176	
5.92529	-0.0704956	0.000457764	
5.92407	-0.0701904	0.000305176	
5.92133	-0.0701904	0	
5.9201	-0.0695801	0	
5.9201	-0.0701904	0.000305176	
5.9201	-0.0701904	0.000152588	
5.92102	-0.0708008	0.000305176	
5.92072	-0.0704956	0.000457764	
5.92041	-0.0704956	0.000610352	
5.92072	-0.0704956	0.000610352	
5.91919	-0.0704956	0.000610352	
5.91675	-0.0704956	0.000457764	
5.91553	-0.0698853	0.000305176	
5.91461	-0.0704956	0.000305176	
5.91553	-0.0701904	0.000457764	
5.91522	-0.0704956	0.000152588	
5.91553	-0.0704956	0.000457764	
5.91522	-0.0701904	0.000305176	
5.91522	-0.0704956	0.000305176	
5.91461	-0.0704956	0.000152588	
5.91187	-0.0704956	0.000305176	
5.91064	-0.0698853	0.000457764	
5.91003	-0.0698853	0.000915527	
5.91034	-0.0680542	0.000457764	
5.91034	-0.0656128	0.000305176	
5.91034	-0.0653076	0.000457764	
5.91095	-0.0656128	0.000610352	
5.91125	-0.0653076	0.000762939	
5.90912	-0.0656128	-0.000152588	
5.90637	-0.0653076	0	
5.90546	-0.0662231	0.000152588	
5.90515	-0.0656128	0.000305176	
5.90576	-0.0653076	0.000305176	
5.90576	-0.0650024	0.000152588	
5.90515	-0.0656128	0.000152588	
5.90607	-0.0646973	0.000457764	
5.90546	-0.0656128	0.000762939	
5.90515	-0.0656128	0.000457764	
5.90179	-0.0653076	0.000305176	
5.90057	-0.0653076	0.000305176	
5.90088	-0.0656128	0.000610352	
5.90057	-0.0653076	0.000305176	
5.90027	-0.0656128	0.000152588	
5.90057	-0.0653076	0.000152588	
5.90057	-0.0646973	0.000457764	
5.89966	-0.0650024	0.000152588	
5.89661	-0.0653076	0.000457764	
5.89569	-0.065918	0.000152588	
5.89539	-0.0653076	0.000305176	
5.89508	-0.0653076	0.000762939	
5.89661	-0.0650024	0.000457764	
5.896	-0.0653076	0.000305176	
5.89569	-0.0653076	0.000457764	
5.896	-0.0653076	0.000457764	
5.89417	-0.0656128	0.000457764	
5.89111	-0.0656128	0	
5.8905	-0.0656128	0.000152588	
5.89111	-0.0646973	0.000457764	
5.8902	-0.0650024	0.000457764	
5.89111	-0.0653076	0.000610352	
5.88989	-0.0656128	0.000305176	
5.89081	-0.0653076	0.000457764	
5.89111	-0.0653076	0.000762939	
5.88959	-0.065918	0.000610352	
5.88684	-0.0653076	0.000305176	
5.88562	-0.0662231	0.000610352	
5.88593	-0.0650024	0.000610352	
5.88562	-0.0653076	0.000457764	
5.88531	-0.0650024	0.000305176	
5.88562	-0.0653076	0	
5.88562	-0.0653076	0.000152588	
5.88562	-0.0653076	0.000305176	
5.8844	-0.0653076	0.000305176	
5.88165	-0.0656128	0.000457764	
5.88074	-0.0650024	0.000457764	
5.88043	-0.0656128	0.000457764	
5.88074	-0.0650024	0.000915527	
5.88074	-0.0653076	0.000152588	
5.88043	-0.0656128	0	
5.88074	-0.0653076	0.000305176	
5.87921	-0.0646973	0.000457764	
5.87646	-0.0650024	0.000305176	
5.87616	-0.0653076	0	
5.87585	-0.065918	0.000305176	
5.87585	-0.0650024	0.000457764	
5.87555	-0.0650024	0.000152588	
5.87555	-0.0653076	0.000457764	
5.87616	-0.065918	0.000305176	
5.87494	-0.0653076	0.000305176	
5.87463	-0.0656128	0.000762939	
5.87219	-0.0650024	0.000457764	
5.87067	-0.065918	0.000305176	
5.87036	-0.0653076	0.000457764	
5.87097	-0.0653076	0.000457764	
5.87067	-0.065918	0.000457764	
5.87036	-0.0653076	0	
5.87128	-0.065918	0.000457764	
5.86975	-0.0650024	0.000305176	
5.867	-0.0656128	0.000305176	
5.86609	-0.0653076	0.000152588	
5.86609	-0.0656128	0.000152588	
5.86609	-0.0656128	0.000610352	
5.86609	-0.0653076	0.000610352	
5.86609	-0.0650024	0.000610352	
5.86609	-0.0656128	0.000915527	
5.86639	-0.0653076	0.000152588	
5.86517	-0.0656128	0.000610352	
5.86243	-0.0650024	0.000457764	
5.86121	-0.0653076	0.000457764	
5.8609	-0.0653076	0.000152588	
5.86182	-0.0653076	0.000762939	
5.8609	-0.0650024	0.000457764	
5.8606	-0.0653076	0.000610352	
5.8609	-0.0650024	0.000457764	
5.86029	-0.0653076	0.000610352	
5.85754	-0.0656128	0.000762939	
5.85632	-0.0653076	0.000762939	
5.85663	-0.0646973	0.000457764	
5.85602	-0.0650024	0.000152588	
5.85602	-0.0653076	0.000610352	
5.85602	-0.0653076	0.000305176	
5.85663	-0.0653076	0.000457764	
5.8551	-0.065918	0.000305176	
5.85297	-0.0650024	0.000305176	
5.85175	-0.0653076	0.000305176	
5.85114	-0.0653076	0	
5.85144	-0.0653076	0.000457764	
5.85144	-0.0650024	0.000457764	
5.85083	-0.0653076	0.000610352	
5.85144	-0.0653076	0.000457764	
5.85022	-0.0650024	0.000305176	
5.84778	-0.0653076	0.000457764	
5.84595	-0.0653076	0.000457764	
5.84564	-0.0656128	0.000610352	
5.84656	-0.065918	0.000305176	
5.84595	-0.0653076	-0.000152588	
5.84595	-0.0650024	0.000152588	
5.84686	-0.0646973	0.000152588	
5.84534	-0.0656128	0.000305176	
5.8429	-0.0653076	0.000610352	
5.84167	-0.0653076	0.000457764	
5.84167	-0.0656128	0.000457764	
5.84137	-0.0650024	0.000457764	
5.84167	-0.0653076	0.000762939	
5.84198	-0.0656128	0.000610352	
5.84045	-0.0653076	0.000152588	
5.83771	-0.062561	0.000610352	
5.8374	-0.06073	0.000610352	
5.83679	-0.0604248	0.000152588	
5.83649	-0.0601196	-0.000152588	
5.83679	-0.0601196	0	
5.8374	-0.06073	0.000305176	
5.8374	-0.0604248	0.000152588	
5.83557	-0.0601196	0.000457764	
5.83282	-0.0604248	0.000610352	
5.83191	-0.06073	0.000305176	
5.83191	-0.0604248	0.000915527	
5.83191	-0.06073	0.000457764	
5.83099	-0.0601196	0.000152588	
5.83191	-0.06073	0.000457764	
5.83099	-0.0598145	0.000457764	
5.82794	-0.0579834	0	
5.82733	-0.0561523	0	
5.82642	-0.0558472	0.000305176	
5.82672	-0.0552368	0.000610352	
5.82642	-0.0552368	0.000152588	
5.82672	-0.055542	0.000457764	
5.82703	-0.0561523	0.000152588	
5.8255	-0.0552368	0.000152588	
5.82336	-0.0552368	0.000610352	
5.82184	-0.0558472	0.000915527	
5.82184	-0.0527954	0.000610352	
5.82153	-0.0515747	0.000457764	
5.82153	-0.0512695	0.000762939	
5.82153	-0.0509644	0.000762939	
5.82062	-0.0506592	0.000305176	
5.81787	-0.0506592	0.000305176	
5.81696	-0.0506592	0.000305176	
5.81696	-0.0506592	0.000610352	
5.81696	-0.0482178	0.000305176	
5.81726	-0.0460815	0	
5.81726	-0.0460815	0.000305176	
5.81604	-0.0457764	0.000762939	
5.81268	-0.0457764	0.000610352	
5.81268	-0.0457764	0.000762939	
5.81207	-0.043335	0.000457764	
5.81207	-0.0411987	0.000915527	
5.81177	-0.0408936	0.000457764	
5.81207	-0.0411987	0.000305176	
5.81055	-0.0411987	0	
5.8078	-0.0405884	0.000305176	
5.80658	-0.0378418	0.000457764	
5.80688	-0.0363159	0.000305176	
5.80688	-0.0357056	0.000152588	
5.80688	-0.0363159	0	
5.80719	-0.0360107	0.000457764	
5.80627	-0.032959	0.000457764	
5.80292	-0.0314331	0.000305176	
5.802	-0.0299072	0.000457764	
5.80231	-0.0314331	0.000305176	
5.8017	-0.0311279	0.000610352	
5.802	-0.0283813	0.000610352	
5.80292	-0.0265503	0.000305176	
5.80109	-0.0262451	0.000152588	
5.79834	-0.0265503	0.000305176	
5.79712	-0.0238037	0.000305176	
5.79681	-0.0216675	0.000610352	
5.79712	-0.0204468	0.000305176	
5.79742	-0.0216675	0.000762939	
5.79681	-0.0186157	0.000915527	
5.79651	-0.0158691	0.000305176	
5.79315	-0.0161743	0.000457764	
5.79224	-0.0158691	0.000305176	
5.79224	-0.0134277	0.000457764	
5.79132	-0.0119019	0.000152588	
5.79132	-0.0109863	0	
5.79254	-0.0115967	0.000457764	
5.79102	-0.0088501	0.000305176	
5.78796	-0.00671387	-0.000152588	
5.78735	-0.00732422	0.000610352	
5.78735	-0.00366211	0.000610352	
5.78735	-0.00244141	0.000305176	
5.78705	-0.00152588	0.000915527	
5.78766	-0.0012207	0.000457764	
5.78583	0.000610352	0.000305176	
5.78308	0.00335693	0.000457764	
5.78247	0.00244141	0.000457764	
5.78186	0.00579834	0.000457764	
5.78186	0.00671387	0.000152588	
5.78186	0.00793457	0	
5.78186	0.010376	0.000152588	
5.78033	0.012207	0.000152588	
5.7785	0.0131226	0.000305176	
5.77728	0.0149536	0.000305176	
5.77728	0.0183105	0.000457764	
5.77698	0.017395	0.000457764	
5.77728	0.0213623	0.000915527	
5.77728	0.0222778	0.000152588	
5.77667	0.0238037	0.000762939	
5.77362	0.0253296	0.000610352	
5.77332	0.0274658	0.000152588	
5.77179	0.0305176	0	
5.77209	0.0323486	0	
5.7724	0.0323486	0	
5.7724	0.0354004	0.000305176	
5.77118	0.0372314	0	
5.76904	0.0372314	0.000610352	
5.76782	0.039978	0.000457764	
5.76721	0.0421143	0	
5.76752	0.045166	0.000762939	
5.76752	0.0469971	0.000610352	
5.7666	0.0476074	0.000457764	
5.76385	0.0500488	0.000610352	
5.76294	0.0518799	0.000457764	
5.76263	0.0546265	0.000610352	
5.76294	0.0561523	0.000305176	
5.76294	0.0576782	0.000457764	
5.76233	0.0598145	0.000305176	
5.76141	0.0616455	0.000305176	
5.75897	0.0650024	0.000457764	
5.75714	0.0665283	0.000457764	
5.75745	0.0695801	0.000152588	
5.75836	0.0720215	0.000457764	
5.75775	0.0723267	0.000457764	
5.75806	0.0741577	0.000457764	
5.75623	0.0762939	0.000457764	
5.7547	0.0799561	0.000915527	
5.75348	0.0802612	0.000610352	
5.75256	0.0836182	0.000305176	
5.75256	0.0854492	0.000305176	
5.75287	0.0857544	0.000305176	
5.75165	0.088501	0.000305176	
5.74829	0.0906372	0.000610352	
5.74738	0.0933838	0.000457764	
5.74799	0.0949097	0.000305176	
5.74799	0.0985718	0.000457764	
5.74829	0.100708	0.000915527	
5.74829	0.103455	0.000457764	
5.74707	0.105591	0.000457764	
5.74402	0.105591	0.000457764	
5.7431	0.107727	0.000305176	
5.7428	0.110474	0.000610352	
5.7428	0.112915	0.000152588	
5.7428	0.114441	0.000305176	
5.7428	0.118103	0.000457764	
5.74188	0.119629	0.000152588	
5.73914	0.122681	0.000152588	
5.73822	0.124817	0.000457764	
5.73792	0.128174	0.000915527	
5.7373	0.1297	0.000457764	
5.73822	0.130005	0.000457764	
5.73669	0.132751	0.000457764	
5.73425	0.134583	0.000762939	
5.73273	0.137024	0.000457764	
5.73303	0.140381	0.000305176	
5.73273	0.142517	0.000305176	
5.73334	0.143433	0.000152588	
5.73303	0.147705	0.000305176	
5.73181	0.149231	0	
5.72906	0.151978	0.000305176	
5.72845	0.154114	0.000305176	
5.72784	0.155029	0.000457764	
5.72815	0.15686	0.000610352	
5.72754	0.158691	0.000305176	
5.72815	0.162048	0.000305176	
5.72693	0.16449	0.000152588	
5.72357	0.166931	0.000457764	
5.72327	0.169373	0.000305176	
5.72296	0.171814	0.000610352	
5.72296	0.173645	0.000152588	
5.72296	0.176392	0.000152588	
5.72205	0.177917	0.000457764	
5.71899	0.181274	0.000305176	
5.71838	0.183105	0.000610352	
5.71777	0.184326	0.000305176	
5.71777	0.186462	0.000457764	
5.71747	0.187988	0.000762939	
5.71808	0.19165	0.000610352	
5.71625	0.193481	0.000305176	
5.71503	0.196228	0.000305176	
5.7135	0.198364	0.000762939	
5.7135	0.201111	0.000305176	
5.7132	0.203247	0.000152588	
5.71289	0.203552	0.000610352	
5.71167	0.205994	0.000152588	
5.70953	0.20813	0.000305176	
5.70801	0.210876	0.000305176	
5.70862	0.212708	0.000305176	
5.7074	0.215149	0.000305176	
5.70801	0.218201	0.00106812	
5.70831	0.218201	0.000762939	
5.70679	0.221252	0.000305176	
5.70465	0.223389	0.000457764	
5.70343	0.226135	0.000457764	
5.70343	0.227661	0.000610352	
5.70374	0.230713	0	
5.70343	0.231934	0.000457764	
5.70313	0.232544	0	
5.7019	0.235596	0.000457764	
5.69946	0.237732	0.000305176	
5.69794	0.240173	0.000305176	
5.69794	0.24231	0.000457764	
5.69824	0.24292	0.00106812	
5.69885	0.245667	0.000915527	
5.69702	0.247498	0.000457764	
5.69489	0.249939	0.000152588	
5.69366	0.252075	0.000305176	
5.69397	0.25238	0.000305176	
5.69366	0.255432	0.000457764	
5.69366	0.256958	0.000152588	
5.69427	0.257568	0	
5.69244	0.259705	0.000457764	
5.6897	0.262451	0.000305176	
5.68848	0.264893	0.000152588	
5.68848	0.267639	0.000305176	
5.68787	0.267639	0.000305176	
5.68878	0.270081	0.000762939	
5.68878	0.272217	0.000305176	
5.68756	0.272217	-0.000152588	
5.6842	0.274963	0.000762939	
5.6839	0.276489	0.000457764	
5.6839	0.277405	0.000610352	
5.68359	0.280457	-0.000152588	
5.68359	0.281677	0.000457764	
5.68268	0.281982	0.000457764	
5.68054	0.283813	0.000152588	
5.67902	0.286865	0.000457764	
5.67871	0.286865	0.000610352	
5.67902	0.289917	0.000457764	
5.6781	0.292053	0.000457764	
5.67932	0.291443	0.000305176	
5.67749	0.2948	0.000457764	
5.67535	0.296326	0.000457764	
5.67413	0.296631	0.000457764	
5.67352	0.299377	0.000457764	
5.67413	0.301514	0	
5.67444	0.301819	0.000610352	
5.67413	0.304871	0.000305176	
5.67261	0.306091	0.000305176	
5.67017	0.307007	0.000305176	
5.66895	0.306396	0.000305176	
5.66925	0.309143	0.000305176	
5.66895	0.311279	0.000610352	
5.66956	0.311584	0.000610352	
5.66803	0.312195	0.000457764	
5.66498	0.313721	0.000305176	
5.66345	0.316467	0.000457764	
5.66437	0.316162	0.000457764	
5.66406	0.316772	0.000152588	
5.66437	0.318604	-0.000152588	
5.66376	0.32074	0.000457764	
5.66315	0.32135	0.000457764	
5.6601	0.321045	0.000305176	
5.65918	0.323792	0.000152588	
5.65887	0.326233	0.000610352	
5.65887	0.326233	0.000305176	
5.65918	0.326233	0.000915527	
5.65887	0.328979	0.000762939	
5.65765	0.330505	0.000457764	
5.65552	0.331421	0.000305176	
5.65399	0.331726	0.000610352	
5.65399	0.331421	0.000610352	
5.65491	0.333557	-0.000152588	
5.65369	0.335083	0.000610352	
5.6546	0.335999	0.000610352	
5.65308	0.335999	0	
5.65063	0.336609	0.000610352	
5.64941	0.338135	0.000305176	
5.64911	0.340271	0.000610352	
5.64911	0.341187	0.000610352	
5.64911	0.341187	0.000457764	
5.64789	0.340576	0.000457764	
5.64575	0.341187	0.000305176	
5.64484	0.340881	0.000152588	
5.64453	0.343018	0.000457764	
5.64362	0.345154	0.000152588	
5.64453	0.345459	0.000457764	
5.64453	0.346069	0.000457764	
5.64301	0.345459	0.000152588	
5.64026	0.345154	0.000152588	
5.63965	0.346069	0.000152588	
5.63965	0.348511	0.000305176	
5.63934	0.350037	0.000915527	
5.63965	0.350342	0.000305176	
5.63995	0.350952	0.000762939	
5.63812	0.350342	0	
5.63599	0.351257	0.000457764	
5.63477	0.350342	0.000305176	
5.63446	0.350037	0	
5.63416	0.350342	-0.000152588	
5.63385	0.353394	0.000152588	
5.63446	0.354919	0.000152588	
5.63354	0.355225	0	
5.6308	0.35553	0.000457764	
5.62988	0.355835	0.000305176	
5.62958	0.355835	0.000457764	
5.62927	0.35553	0.000915527	
5.63049	0.35614	0.000152588	
5.62897	0.354919	0.000305176	
5.62836	0.355835	0.000457764	
5.62622	0.354919	0.000457764	
5.625	0.35553	0.000152588	
5.62439	0.35614	0	
5.625	0.35553	0.000152588	
5.62531	0.355225	0.000305176	
5.62439	0.354919	0.000305176	
5.62378	0.35553	0.000762939	
5.62134	0.35553	0.000457764	
5.62012	0.357971	0.000610352	
5.61951	0.360413	0.000762939	
5.62012	0.360413	0.000610352	
5.61981	0.360107	0.000457764	
5.61981	0.360413	0.000305176	
5.61829	0.360718	0.000305176	
5.61615	0.360718	0.000610352	
5.61462	0.360718	-0.000152588	
5.61432	0.360413	0.000305176	
5.61584	0.361328	0.000152588	
5.61432	0.360413	0.000152588	
5.61493	0.361023	0.000152588	
5.61371	0.360718	0.000305176	
5.61066	0.359802	0.000305176	
5.61035	0.360718	0.000762939	
5.60944	0.360107	0.000305176	
5.60944	0.358276	0.000457764	
5.60913	0.35553	0.000457764	
5.60974	0.35553	0.000610352	
5.60791	0.35553	0.000152588	
5.60608	0.354919	0.000305176	
5.60486	0.355835	0.000305176	
5.60455	0.35553	0.000305176	
5.60455	0.35553	0.000305176	
5.60455	0.355225	0.000305176	
5.60516	0.35553	0.000305176	
5.60394	0.355225	0.000305176	
5.60089	0.35553	0.000305176	
5.60059	0.355835	0.000457764	
5.59998	0.355225	0.000762939	
5.59998	0.354919	0.000152588	
5.59967	0.35553	0.000457764	
5.59998	0.355835	0.000457764	
5.59967	0.354614	0.000610352	
5.59631	0.355225	0.000152588	
5.5954	0.353394	0	
5.5954	0.351257	0.000305176	
5.59479	0.350647	0.000305176	
5.59479	0.350952	0.000457764	
5.59448	0.350647	0.000457764	
5.59387	0.350647	0.000152588	
5.59174	0.350952	0.000762939	
5.59021	0.350037	0.000457764	
5.5899	0.350647	0.000610352	
5.5899	0.350647	0.000457764	
5.59052	0.348206	0	
5.59021	0.34668	0.000305176	
5.58868	0.345459	0.000152588	
5.58655	0.345764	0.000457764	
5.58472	0.345459	0.000152588	
5.58411	0.346069	0	
5.58441	0.346069	0.000457764	
5.58533	0.345764	0.000762939	
5.58472	0.346069	0.000152588	
5.5838	0.343323	0.000305176	
5.58136	0.341797	0.000762939	
5.58044	0.340881	0.000457764	
5.58014	0.340271	0.000152588	
5.58014	0.340576	0.000457764	
5.57983	0.340881	0.000305176	
5.58014	0.340576	0.000152588	
5.57892	0.33844	0.000152588	
5.57617	0.336304	0.000152588	
5.57526	0.336304	0.000305176	
5.57526	0.335388	0.000152588	
5.57465	0.335388	0.000152588	
5.57495	0.337219	0.000457764	
5.57495	0.335999	0.000152588	
5.57495	0.333862	0.000762939	
5.57373	0.332031	0.000457764	
5.57129	0.331116	0.000305176	
5.56976	0.331726	0.000457764	
5.56946	0.3302	0.000152588	
5.57037	0.331421	0.000152588	
5.57007	0.328674	0.000152588	
5.57007	0.326233	0.000305176	
5.56915	0.325623	0.000457764	
5.5658	0.325928	0.000305176	
5.56549	0.325928	0.000305176	
5.56549	0.326538	0.000152588	
5.56427	0.323486	0.000457764	
5.56519	0.321655	0.000610352	
5.56488	0.32135	0.000457764	
5.56396	0.32135	0.000305176	
5.56183	0.32074	0.000305176	
5.5603	0.318909	0.000457764	
5.56	0.316162	0.000305176	
5.56091	0.316162	0.000305176	
5.5603	0.315247	0.000457764	
5.56061	0.316162	0.000305176	
5.56061	0.313721	0.000610352	
5.55878	0.312195	0.000152588	
5.55603	0.311584	0.000457764	
5.55542	0.31189	0	
5.55573	0.311584	0.000762939	
5.55511	0.309143	0.000457764	
5.55511	0.307617	0.000305176	
5.55511	0.306702	0.000457764	
5.55389	0.306702	0.000610352	
5.55176	0.307007	0.000305176	
5.54993	0.303955	0.000152588	
5.54993	0.302429	0.000152588	
5.54993	0.30304	0.000305176	
5.55054	0.301819	0.000305176	
5.55023	0.302124	0.000457764	
5.54962	0.299377	0.000305176	
5.54657	0.297546	0.000305176	
5.54565	0.296936	0.000457764	
5.54596	0.296631	0.000915527	
5.54504	0.296631	0.000610352	
5.54565	0.294495	0.000152588	
5.54565	0.292664	0.000457764	
5.54596	0.292969	0.000305176	
5.54474	0.292358	0.000152588	
5.54138	0.289917	0	
5.54047	0.287476	0.000457764	
5.54047	0.287476	0.000305176	
5.54047	0.286865	0.000152588	
5.54047	0.284729	0.000457764	
5.54108	0.282898	0.000457764	
5.53986	0.281982	0.000305176	
5.5365	0.282288	0.000457764	
5.53619	0.281677	0.000457764	
5.5365	0.279236	0.000610352	
5.53558	0.278015	0.000305176	
5.53558	0.2771	0.000610352	
5.53589	0.277405	0.000457764	
5.53436	0.274658	-0.000152588	
5.53131	0.272522	0.000457764	
5.53101	0.272217	0.000305176	
5.5307	0.272217	0.000305176	
5.5304	0.270386	0.000610352	
5.53162	0.268555	0.000152588	
5.53101	0.267639	0.000457764	
5.53101	0.267639	0.000610352	
5.52948	0.267029	0.000457764	
5.52734	0.265198	0.000457764	
5.52643	0.263367	0.000305176	
5.52612	0.262146	0.000457764	
5.52551	0.262146	0.000152588	
5.52551	0.260315	0.000152588	
5.52612	0.258179	0	
5.5249	0.257263	0.000152588	
5.52155	0.257568	0.000305176	
5.52032	0.255127	0.000152588	
5.52094	0.252686	0.000305176	
5.52094	0.252686	0.000457764	
5.52094	0.252686	0.000457764	
5.52094	0.249634	0.000915527	
5.52124	0.248108	0.000457764	
5.51941	0.247192	0.000305176	
5.51758	0.247498	0.000610352	
5.51636	0.245056	0.000457764	
5.51636	0.243225	0.000305176	
5.51575	0.243225	0.000305176	
5.51605	0.242615	0.000152588	
5.51605	0.240784	0.000152588	
5.51483	0.238647	0.000457764	
5.513	0.237732	0.000610352	
5.51147	0.237732	0.000457764	
5.51117	0.235291	0.000915527	
5.51086	0.233459	0.000762939	
5.51147	0.233459	0.000457764	
5.51147	0.232849	0.000457764	
5.51147	0.231323	0.000457764	
5.50995	0.228882	0.000305176	
5.50751	0.227966	0.000457764	
5.5069	0.228271	0.000152588	
5.50659	0.226135	0.000610352	
5.50629	0.224609	0.000457764	
5.50629	0.223083	0.000305176	
5.5069	0.223389	0.000457764	
5.50537	0.220337	0.000762939	
5.50232	0.218811	0.000457764	
5.5014	0.218201	0.000915527	
5.50079	0.218506	0.000457764	
5.50171	0.216675	0.000305176	
5.50171	0.213928	0.000457764	
5.5011	0.213623	0.000762939	
5.5011	0.213318	0.000457764	
5.50018	0.213623	0.000305176	
5.49713	0.210571	0.000305176	
5.49652	0.209351	0.000305176	
5.49652	0.20813	0.000762939	
5.49683	0.20874	0.000152588	
5.49622	0.206299	0.000457764	
5.49652	0.204163	0.000305176	
5.495	0.202942	0.000457764	
5.49377	0.203857	0.000610352	
5.49164	0.201416	0.000610352	
5.49103	0.199585	0.000305176	
5.49072	0.198364	0.000610352	
5.49164	0.198364	0.000457764	
5.49164	0.196533	0.000305176	
5.49164	0.194092	0.000305176	
5.49011	0.193481	0.000152588	
5.48737	0.194397	0.000457764	
5.48615	0.19104	0.000152588	
5.48584	0.189209	0.000610352	
5.48584	0.188904	0.000305176	
5.48676	0.189209	0.000457764	
5.48615	0.188599	0.000610352	
5.48615	0.185852	0.000457764	
5.48553	0.184631	0.000457764	
5.48187	0.184021	0.000457764	
5.48157	0.183716	0.000305176	
5.48187	0.18158	0.000152588	
5.48157	0.179443	0.000457764	
5.48096	0.178833	0.000305176	
5.48157	0.178833	0.000457764	
5.48035	0.176697	0.000610352	
5.4776	0.174866	0.000152588	
5.47607	0.174255	0.000152588	
5.47699	0.17395	0.000762939	
5.47668	0.174561	0.000610352	
5.47577	0.172729	0.000610352	
5.47668	0.169678	0.000305176	
5.47638	0.169067	0.000305176	
5.47546	0.169373	0.000762939	
5.47211	0.166931	0.000457764	
5.4715	0.16449	0.000152588	
5.47119	0.16449	0	
5.47211	0.164795	0.000457764	
5.4715	0.164185	0.000457764	
5.4715	0.162048	0.000152588	
5.47119	0.159302	0.000305176	
5.47058	0.158997	0.000610352	
5.46783	0.159302	0.000305176	
5.46661	0.159607	0.000762939	
5.46722	0.157166	0.000457764	
5.46692	0.155334	0.000457764	
5.46753	0.15564	0.000305176	
5.466	0.154724	0.000457764	
5.46661	0.154419	0.000457764	
5.46509	0.151672	0.000152588	
5.46295	0.150146	0.000305176	
5.46173	0.149841	0.000305176	
5.46204	0.149231	0.000457764	
5.46204	0.149231	0.000915527	
5.46173	0.147705	0.000457764	
5.46204	0.145569	0.000457764	
5.46143	0.145264	0.000762939	
5.46082	0.144958	0.000457764	
5.45837	0.145264	0.000457764	
5.45654	0.142212	0.000457764	
5.45654	0.140686	0.000457764	
5.45685	0.140076	0.000762939	
5.45746	0.139465	-0.000152588	
5.45685	0.139771	0.000610352	
5.45593	0.137634	0.000610352	
5.45288	0.135193	0.000305176	
5.45258	0.135498	0.000305176	
5.45197	0.135193	0.000610352	
5.45166	0.135193	0.000305176	
5.45166	0.132446	0.000915527	
5.45166	0.130615	0.000305176	
5.45197	0.13031	0.000457764	
5.45044	0.130005	0.000305176	
5.44739	0.13031	0.000457764	
5.44678	0.130005	0.000152588	
5.44739	0.127258	0.000152588	
5.44708	0.125427	0	
5.44647	0.125732	0.000152588	
5.44739	0.125122	0.000610352	
5.44739	0.125122	0	
5.44586	0.124817	0.000305176	
5.44281	0.122986	0.000305176	
5.44189	0.120544	0.000152588	
5.44189	0.120544	0.000610352	
5.4425	0.119934	0.000457764	
5.44189	0.120544	0.000152588	
5.4422	0.120239	0.000305176	
5.4422	0.117188	0.000610352	
5.4422	0.115662	0.000457764	
5.44159	0.115356	0.000305176	
5.43823	0.115356	0.000152588	
5.43701	0.115662	0.000152588	
5.43671	0.115356	0.000152588	
5.43762	0.112915	0.000610352	
5.43732	0.110474	0.000305176	
5.43671	0.110474	0.000457764	
5.43732	0.110168	0.000915527	
5.4364	0.110474	0.000762939	
5.43365	0.110779	0.000610352	
5.43243	0.108643	0.000457764	
5.43213	0.105591	0.000152588	
5.43243	0.105591	0.000305176	
5.43182	0.105591	0.000305176	
5.43213	0.105896	0.000152588	
5.43213	0.105591	0.000152588	
5.43091	0.105896	0.000305176	
5.42847	0.103149	0.000152588	
5.42755	0.101013	0.000305176	
5.42755	0.100403	0.000457764	
5.42755	0.100098	0.000457764	
5.42755	0.100403	0.000457764	
5.42694	0.101013	0.000457764	
5.42755	0.0997925	0	
5.42572	0.0985718	0.000457764	
5.42358	0.0964355	0.000152588	
5.42236	0.0961304	0.000305176	
5.42236	0.0958252	0.000305176	
5.42236	0.0961304	0.000457764	
5.42206	0.0964355	0.000305176	
5.42175	0.0958252	0.000305176	
5.42175	0.09552	0.000305176	
5.42297	0.093689	0.000457764	
5.42114	0.0912476	0.000152588	
5.4187	0.0912476	0.000915527	
5.41748	0.0906372	0.000457764	
5.41687	0.0909424	0.000305176	
5.41748	0.0906372	0.000457764	
5.41687	0.0909424	0.000762939	
5.41718	0.0909424	0.000305176	
5.41779	0.0891113	0.000152588	
5.41656	0.0863647	0.000457764	
5.41351	0.0854492	0.000457764	
5.41229	0.0857544	0.000457764	
5.41199	0.0860596	0.000610352	
5.41229	0.0860596	0.000762939	
5.41199	0.0854492	0.000305176	
5.41229	0.0854492	0.000762939	
5.41199	0.0839233	0.000457764	
5.41229	0.0811768	0.000152588	
5.41199	0.0808716	0.000457764	
5.40833	0.0811768	0.000610352	
5.40771	0.0805664	0.000305176	
5.4071	0.0811768	0.000457764	
5.40741	0.0805664	0.000305176	
5.4068	0.0805664	0.000152588	
5.40741	0.0814819	0.000762939	
5.4068	0.0796509	0.000305176	
5.4071	0.0772095	0.000457764	
5.40588	0.0772095	0.000457764	
5.40405	0.0775146	0.000305176	
5.40283	0.0769043	0.000457764	
5.40222	0.0765991	0.000457764	
5.40314	0.0765991	0.000305176	
5.40222	0.0762939	0.000457764	
5.40222	0.0765991	0.000457764	
5.40253	0.0744629	0.000152588	
5.40131	0.0720215	0.000305176	
5.40192	0.0717163	0.000457764	
5.39856	0.0720215	0.000305176	
5.39764	0.0720215	0.000457764	
5.39734	0.0717163	0.000305176	
5.39734	0.0723267	0.000457764	
5.39734	0.0720215	0.000152588	
5.39734	0.0720215	0.000762939	
5.39703	0.0720215	0.000457764	
5.39764	0.0698853	0.000457764	
5.39673	0.0671387	0.000457764	
5.39398	0.0674438	0.000457764	
5.39307	0.0671387	0.000305176	
5.39215	0.0665283	0.000305176	
5.39215	0.0668335	0.000305176	
5.39246	0.0671387	0.000457764	
5.39246	0.0665283	0.000152588	
5.39246	0.0668335	0.000305176	
5.39276	0.0665283	0.000457764	
5.39093	0.0671387	0.000915527	
5.38879	0.0650024	0.000915527	
5.38788	0.062561	0.000457764	
5.38727	0.0622559	0.000762939	
5.38788	0.0622559	0	
5.38879	0.0619507	0.000762939	
5.38727	0.0619507	0.000305176	
5.38788	0.0619507	0.000152588	
5.38818	0.0628662	0.000457764	
5.38696	0.0622559	0.000457764	
5.38361	0.0616455	0.000762939	
5.3833	0.0619507	0.000457764	
5.38269	0.0592041	0.000610352	
5.3833	0.057373	0.000610352	
5.38239	0.0579834	0.000762939	
5.38239	0.057373	0.000610352	
5.38208	0.057373	0.000457764	
5.38239	0.0564575	0.000305176	
5.383	0.0570679	0.000610352	
5.38177	0.0579834	0.000305176	
5.37903	0.0567627	0	
5.37842	0.057373	0.000305176	
5.3775	0.0570679	0.000457764	
5.3775	0.0567627	0.000457764	
5.37781	0.0546265	0.000152588	
5.37811	0.0521851	0.000305176	
5.37781	0.0521851	0.000305176	
5.37781	0.0524902	0.000457764	
5.3772	0.0518799	0.000457764	
5.37354	0.0518799	0.000457764	
5.37323	0.0521851	0.000152588	
5.37323	0.0518799	0.000610352	
5.37292	0.0527954	0.000457764	
5.37292	0.0521851	0.000457764	
5.37292	0.0524902	0.000305176	
5.37354	0.0521851	0	
5.37292	0.0497437	0.000152588	
5.37323	0.0476074	0.000305176	
5.3717	0.0473022	0.000915527	
5.36926	0.0466919	0.000305176	
5.36774	0.0476074	0.000610352	
5.36804	0.0479126	0.000457764	
5.36804	0.0473022	0.000610352	
5.36743	0.0473022	0.000305176	
5.36804	0.0476074	0.000305176	
5.36774	0.0473022	0.000457764	
5.36804	0.0476074	0.000457764	
5.36804	0.0469971	0.000305176	
5.36713	0.045166	0.000305176	
5.36438	0.0427246	0.000152588	
5.36377	0.0430298	0.000305176	
5.36316	0.0424194	0.000152588	
5.36285	0.0430298	0.000152588	
5.36316	0.0421143	0.000305176	
5.36285	0.0430298	0.000610352	
5.36346	0.0421143	0.000457764	
5.36255	0.0421143	0.000305176	
5.36255	0.0427246	0.000305176	
5.36194	0.0424194	0.000762939	
5.35919	0.0427246	0.000610352	
5.35767	0.0421143	0	
5.35858	0.0402832	0.000305176	
5.35889	0.0378418	0.000305176	
5.35828	0.0375366	0.000152588	
5.35797	0.0372314	0.000305176	
5.35858	0.0375366	0.000305176	
5.35828	0.0366211	0.000305176	
5.35919	0.0378418	0.000457764	
5.35706	0.0378418	0.000915527	
5.35461	0.0375366	0.000457764	
5.35339	0.0372314	0.000457764	
5.35339	0.038147	0.000305176	
5.35309	0.0375366	0.000610352	
5.35248	0.0344849	0.000457764	
5.35309	0.0326538	0.000305176	
5.35339	0.0323486	0.000610352	
5.35339	0.0326538	0.000152588	
5.35309	0.032959	0.000152588	
5.35278	0.032959	0.000457764	
5.35248	0.0326538	0.000305176	
5.34973	0.0326538	0.000915527	
5.34882	0.0332642	0.000610352	
5.34851	0.0326538	0.000305176	
5.34851	0.0326538	0.000457764	
5.34821	0.0323486	0.000457764	
5.3476	0.0326538	0.000610352	
5.34851	0.0302124	0.000610352	
5.34821	0.0274658	0.000305176	
5.34821	0.0274658	0.000762939	
5.3476	0.0280762	0.000305176	
5.34393	0.027771	0.000152588	
5.34332	0.027771	0.000305176	
5.34363	0.0274658	0.000457764	
5.34332	0.027771	0.000305176	
5.34332	0.027771	0.000762939	
5.34332	0.0274658	0.000610352	
5.34332	0.027771	0.000457764	
5.34393	0.0274658	0	
5.34302	0.0271606	0.000457764	
5.34363	0.0256348	0.000305176	
5.3421	0.0228882	-0.000152588	
5.33936	0.0228882	0.000152588	
5.33844	0.0228882	0.000457764	
5.33875	0.0231934	0.000152588	
5.33844	0.0228882	0	
5.33844	0.0231934	0.000305176	
5.33783	0.022583	0.000152588	
5.33844	0.0228882	0.000457764	
5.33813	0.022583	0.000610352	
5.33844	0.0234985	0.000457764	
5.33813	0.0222778	0.000152588	
5.33844	0.020752	0.000762939	
5.33722	0.0186157	0.000457764	
5.33447	0.017395	0	
5.33356	0.0177002	0.000457764	
5.33417	0.0180054	0.000610352	
5.33386	0.017395	0.000457764	
5.33295	0.0180054	0	
5.33386	0.0180054	0.000915527	
5.33356	0.0177002	0.000610352	
5.33356	0.0183105	0.000762939	
5.33417	0.0177002	0.000610352	
5.33386	0.0177002	0.000457764	
5.33234	0.0180054	0.000610352	
5.3299	0.0158691	0.000305176	
5.32806	0.0140381	0.000610352	
5.32867	0.0128174	0.000457764	
5.32867	0.0128174	0.000152588	
5.32867	0.0131226	0.000457764	
5.32837	0.0131226	0.000305176	
5.32837	0.0128174	0.000305176	
5.32898	0.0131226	0.000610352	
5.32867	0.0128174	0.000457764	
5.32928	0.0128174	0.000457764	
5.32837	0.0128174	0.000610352	
5.32745	0.0134277	0.000305176	
5.32471	0.010376	0	
5.32349	0.00854492	0.000152588	
5.32318	0.00762939	0.000457764	
5.32349	0.00793457	0.000457764	
5.32349	0.00793457	0.000152588	
5.3241	0.00762939	0	
5.32379	0.00732422	0.000457764	
5.32379	0.00793457	0.000610352	
5.32379	0.00793457	0.000457764	
5.32318	0.00793457	0.000457764	
5.32288	0.00823975	0.000762939	
5.32227	0.00823975	0.000305176	
5.31952	0.00854492	0.000610352	
5.31891	0.00488281	0.000457764	
5.3186	0.00335693	0.000610352	
5.3186	0.00366211	0.000457764	
5.31891	0.00366211	0.000305176	
5.31891	0.00335693	0.000305176	
5.3186	0.00396729	0.000305176	
5.31891	0.00335693	0.000305176	
5.3186	0.00274658	0.000457764	
5.31891	0.00335693	0.000152588	
5.31799	0.00305176	0.000762939	
5.31799	0.00335693	0.000305176	
5.31525	0.00396729	0.000915527	
5.31372	0.00152588	0.000457764	
5.31372	-0.000305176	0.000457764	
5.31372	-0.00152588	0.000457764	
5.31403	-0.00213623	0.000762939	
5.31433	-0.0012207	0.000305176	
5.31342	-0.00213623	0.000610352	
5.31372	-0.00152588	0.000305176	
5.31403	-0.000915527	0.000305176	
5.31403	-0.00152588	0.000305176	
5.31372	-0.00213623	0.000305176	
5.31403	-0.00213623	0.000457764	
5.3125	-0.0012207	0.000305176	
5.31006	-0.00335693	0.000610352	
5.30945	-0.00518799	0.000305176	
5.30853	-0.00640869	0.000610352	
5.30914	-0.00579834	0.000457764	
5.30914	-0.00640869	0	
5.30945	-0.00640869	0.000305176	
5.30884	-0.00579834	0.000305176	
5.30853	-0.00640869	0	
5.30853	-0.00579834	0	
5.30823	-0.00640869	0.000457764	
5.30914	-0.00671387	0.000457764	
5.30884	-0.00640869	0.000152588	
5.30823	-0.00823975	0.000457764	
5.30457	-0.0112915	0.000610352	
5.30365	-0.0119019	0.000457764	
5.30396	-0.0109863	0.000915527	
5.30396	-0.0119019	0.000457764	
5.30426	-0.0112915	0	
5.30396	-0.0119019	0.000762939	
5.30426	-0.0115967	0.000305176	
5.30457	-0.0109863	0.000305176	
5.30426	-0.012207	0.000457764	
5.30426	-0.0106812	0.000305176	
5.30396	-0.0109863	0.000305176	
5.30396	-0.0134277	0	
5.30396	-0.015564	0.000305176	
5.30243	-0.0167847	0.000457764	
5.29968	-0.0161743	0.000762939	
5.29877	-0.0158691	0.000457764	
5.29938	-0.0161743	0.000610352	
5.29877	-0.0161743	0.000610352	
5.29877	-0.0161743	0.000457764	
5.29877	-0.0158691	0.000457764	
5.29938	-0.0161743	0.000152588	
5.29907	-0.0167847	0.000152588	
5.29877	-0.0167847	0.000457764	
5.29846	-0.0161743	0.000457764	
5.29907	-0.0183105	0.000152588	
5.29907	-0.0213623	0.000305176	
5.29877	-0.0213623	0.000457764	
5.29816	-0.0210571	0.000305176	
5.29541	-0.0210571	0.000457764	
5.29388	-0.0213623	0.000457764	
5.29419	-0.0210571	0.000610352	
5.29449	-0.0216675	0.000152588	
5.29419	-0.0210571	0.000610352	
5.29419	-0.0210571	0.000457764	
5.29358	-0.0210571	0.000305176	
5.29449	-0.0210571	-0.000152588	
5.29419	-0.0238037	0.000457764	
5.29419	-0.0256348	0.000457764	
5.29419	-0.0259399	0.000152588	
5.29388	-0.0268555	0.000457764	
5.29388	-0.0259399	0.000457764	
5.29297	-0.0259399	0.000457764	
5.28992	-0.0259399	0.000457764	
5.28961	-0.0256348	0.000762939	
5.2887	-0.0262451	0.000610352	
5.28931	-0.0256348	0.000457764	
5.289	-0.0262451	0.000610352	
5.289	-0.0265503	0.000457764	
5.289	-0.0289917	0.000305176	
5.289	-0.0314331	0.000305176	
5.289	-0.0299072	0.000610352	
5.28931	-0.0311279	0.000305176	
5.2887	-0.0308228	0.000610352	
5.2887	-0.0317383	0.000305176	
5.28839	-0.0305176	0.000305176	
5.28931	-0.0305176	0.000915527	
5.28839	-0.0305176	0.000457764	
5.28503	-0.0311279	0.000152588	
5.28381	-0.0302124	0.000762939	
5.28442	-0.0311279	0.000457764	
5.28412	-0.0311279	0.000457764	
5.28412	-0.0332642	0	
5.28442	-0.0354004	0.000610352	
5.28412	-0.0360107	0.00106812	
5.28412	-0.0360107	0.000457764	
5.28503	-0.0354004	0.000457764	
5.28412	-0.0360107	0.000152588	
5.28381	-0.0354004	0.000457764	
5.28442	-0.0360107	0.000152588	
5.28381	-0.0357056	0.000610352	
5.28412	-0.0363159	0.000152588	
5.2832	-0.0360107	0	
5.28107	-0.0354004	0.000457764	
5.27893	-0.0378418	0.000610352	
5.27924	-0.0405884	0	
5.27924	-0.0405884	0.000152588	
5.27954	-0.0405884	0.000152588	
5.27954	-0.0402832	0.000305176	
5.27893	-0.0408936	0.000457764	
5.27893	-0.0411987	0.000762939	
5.27954	-0.0415039	0.000457764	
5.27863	-0.0408936	0.000915527	
5.27954	-0.0411987	0.000762939	
5.27893	-0.0411987	0.000610352	
5.27954	-0.0408936	0.000305176	
5.27954	-0.0405884	0.000457764	
5.27924	-0.043335	0.000610352	
5.27832	-0.045166	-0.000152588	
5.27435	-0.0457764	0.000457764	
5.27435	-0.0460815	0.000610352	
5.27435	-0.0460815	0.000305176	
5.27466	-0.0463867	0.000152588	
5.27435	-0.0457764	0.000610352	
5.27405	-0.045166	0.000305176	
5.27405	-0.0457764	0.000610352	
5.27374	-0.0454712	0.000915527	
5.27466	-0.0454712	0.000610352	
5.27466	-0.0454712	0.000610352	
5.27374	-0.0463867	0.000610352	
5.27496	-0.0460815	0.000305176	
5.27435	-0.0482178	0.000305176	
5.27405	-0.050354	0.000152588	
5.27405	-0.0512695	0.000762939	
5.27435	-0.0509644	0.000152588	
5.27222	-0.0509644	0.000152588	
5.27039	-0.0509644	0.000152588	
5.27008	-0.050354	0.000152588	
5.26947	-0.050354	0.000610352	
5.26978	-0.0506592	0.000457764	
5.26978	-0.0509644	0.000457764	
5.26947	-0.0500488	0.000457764	
5.26947	-0.0509644	0.000457764	
5.27039	-0.0497437	0.000915527	
5.26917	-0.0506592	0.000305176	
5.26947	-0.0527954	0.000152588	
5.26917	-0.055542	0.000457764	
5.26917	-0.055542	0.000152588	
5.26947	-0.055542	0.000457764	
5.27039	-0.0558472	0.000762939	
5.26947	-0.0552368	0	
5.27008	-0.0552368	0.000457764	
5.26825	-0.0552368	0.000457764	
5.26611	-0.0552368	0.000610352	
5.26428	-0.0552368	0.000305176	
5.26428	-0.055542	0.000305176	
5.26459	-0.0552368	0.000457764	
5.26459	-0.0552368	0.000762939	
5.26489	-0.0558472	0.000305176	
5.26428	-0.055542	0	
5.26459	-0.0579834	0.000305176	
5.26398	-0.0604248	0.000152588	
5.26398	-0.06073	0.000305176	
5.26459	-0.0610352	0.000610352	
5.26428	-0.06073	0.000457764	
5.26398	-0.0601196	0.000762939	
5.26367	-0.0604248	0.000915527	
5.26428	-0.0604248	0.000305176	
5.26367	-0.0601196	0.000305176	
5.26489	-0.0601196	0.000457764	
5.26428	-0.0610352	0.000305176	
5.26337	-0.0616455	0.000457764	
5.26093	-0.06073	0.000305176	
5.2594	-0.06073	0.000305176	
5.2597	-0.06073	0.000457764	
5.25909	-0.0610352	0.000152588	
5.2594	-0.0601196	0.000610352	
5.2597	-0.062561	0.000457764	
5.2597	-0.0646973	0.000610352	
5.2594	-0.0653076	0.000457764	
5.2597	-0.0656128	0.000152588	
5.25909	-0.0656128	0.000610352	
5.2594	-0.0656128	0.000305176	
5.2594	-0.065918	0.000762939	
5.26001	-0.0662231	0.000152588	
5.26001	-0.0656128	-0.000152588	
5.2594	-0.065918	0.000457764	
5.26001	-0.0656128	0.000305176	
5.26001	-0.0656128	0.000305176	
5.2597	-0.0650024	0.000610352	
5.25909	-0.0656128	-0.000152588	
5.25482	-0.0653076	0.000457764	
5.25452	-0.0650024	0.000152588	
5.25482	-0.0646973	0.000915527	
5.25452	-0.0653076	0.000305176	
5.25391	-0.0683594	0.000152588	
5.25543	-0.0695801	0.000457764	
5.25421	-0.0704956	0.000457764	
5.25421	-0.0708008	-0.000152588	
5.25421	-0.0701904	0.000305176	
5.25482	-0.0701904	0.000457764	
5.25452	-0.0698853	0.000305176	
5.25391	-0.0701904	0.000457764	
5.25421	-0.0704956	0.000305176	
5.25482	-0.0708008	0.000305176	
5.25391	-0.0701904	0.000457764	
5.25421	-0.0698853	0.000610352	
5.25452	-0.0708008	0.000457764	
5.25452	-0.0701904	0.000457764	
5.25421	-0.0704956	0.000305176	
5.2533	-0.0701904	0.000457764	
5.25024	-0.0704956	0.000152588	
5.24994	-0.0701904	0.000305176	
5.24933	-0.0704956	0.000305176	
5.24994	-0.0704956	0.000152588	
5.24933	-0.0726318	0.000305176	
5.24963	-0.0750732	0.000152588	
5.24902	-0.0750732	0.000457764	
5.24933	-0.0756836	0.000610352	
5.24902	-0.0750732	0.000305176	
5.24963	-0.0753784	0.000305176	
5.24933	-0.0753784	0.000457764	
5.24872	-0.0750732	0.000152588	
5.24933	-0.0750732	0.000305176	
5.24994	-0.0750732	0.000305176	
5.24933	-0.0747681	0.000152588	
5.24963	-0.0753784	-0.000152588	
5.24963	-0.0759888	0.000457764	
5.24933	-0.0753784	0.000305176	
5.24963	-0.0756836	0.000305176	
5.24902	-0.0753784	0.000152588	
5.24933	-0.0747681	0.000152588	
5.24902	-0.0750732	0.000610352	
5.24567	-0.0747681	0.0012207	
5.24475	-0.0753784	0.000305176	
5.24475	-0.0753784	0.000305176	
5.24475	-0.0747681	0.000457764	
5.24475	-0.0753784	0.000457764	
5.24445	-0.0769043	0.000152588	
5.24475	-0.0793457	0.000457764	
5.24506	-0.0799561	0.000152588	
5.24475	-0.0802612	0.000305176	
5.24475	-0.0799561	0.000305176	
5.24475	-0.0793457	0.000457764	
5.24475	-0.0805664	0.000457764	
5.24475	-0.0799561	0.000457764	
5.24445	-0.0799561	0.000915527	
5.24475	-0.0799561	0.000152588	
5.24475	-0.0805664	0.000610352	
5.24506	-0.0796509	0.000457764	
5.24506	-0.0796509	0.000305176	
5.24475	-0.0799561	0	
5.24445	-0.0799561	0	
5.24445	-0.0805664	0.000305176	
5.24475	-0.0799561	0.000152588	
5.24353	-0.0796509	0	
5.24139	-0.0799561	0.000457764	
5.24017	-0.0796509	0.000305176	
5.23987	-0.0799561	0	
5.23956	-0.0796509	0.000762939	
5.23956	-0.0799561	0.000457764	
5.23987	-0.0802612	0	
5.23956	-0.0793457	0.000305176	
5.23865	-0.0802612	0.000610352	
5.23956	-0.0827026	0.000457764	
5.23987	-0.0845337	0.000152588	
5.23926	-0.0848389	-0.000152588	
5.23956	-0.0842285	0.000152588	
5.23956	-0.0848389	0.000305176	
5.23956	-0.085144	0.000457764	
5.24017	-0.0848389	0.000457764	
5.23987	-0.085144	0.000305176	
5.23895	-0.0848389	0.000762939	
5.23956	-0.0845337	0.000610352	
5.23895	-0.085144	0.000457764	
5.24017	-0.0848389	0.000305176	
5.23956	-0.0845337	0.000762939	
5.23956	-0.0845337	0.000305176	
5.23956	-0.085144	0.000457764	
5.23834	-0.0848389	0.000152588	
5.2359	-0.0854492	0.000152588	
5.23468	-0.0842285	0.000152588	
5.23468	-0.0854492	0.000152588	
5.23468	-0.085144	0.000610352	
5.23499	-0.085144	0.000152588	
5.23468	-0.0848389	0.000457764	
5.23499	-0.0845337	0.000762939	
5.2359	-0.085144	0.000457764	
5.23438	-0.0848389	0.000457764	
5.23468	-0.0848389	0.000610352	
5.23468	-0.0848389	0.000457764	
5.23468	-0.0848389	0.000152588	
5.23499	-0.085144	0.000152588	
5.23468	-0.0845337	0.000610352	
5.23438	-0.085144	0.000305176	
5.23468	-0.085144	0	
5.23499	-0.0848389	0	
5.23499	-0.0848389	0.000305176	
5.2356	-0.0848389	0.000457764	
5.23438	-0.085144	0.000305176	
5.23468	-0.0845337	0.000457764	
5.23499	-0.0854492	0.000457764	
5.23468	-0.0857544	0.000305176	
5.23468	-0.0869751	0.000457764	
5.23499	-0.0894165	0.000457764	
5.23315	-0.0900269	0	
5.23071	-0.0897217	0.000152588	
5.2301	-0.0894165	0.000305176	
5.2301	-0.0894165	0.000305176	
5.2298	-0.0897217	0.000305176	
5.2298	-0.090332	0.000457764	
5.23041	-0.0897217	0.000152588	
5.22949	-0.0900269	0.000457764	
5.23041	-0.090332	0.000457764	
5.22949	-0.090332	0.000305176	
5.2298	-0.0897217	0.000152588	
5.2301	-0.090332	0.000610352	
5.2301	-0.090332	0.000610352	
5.23041	-0.0900269	0.000457764	
5.2298	-0.0900269	0.000305176	
5.22949	-0.0900269	0.000152588	
5.2301	-0.0900269	0.000305176	
5.2301	-0.0900269	0.000152588	
5.2301	-0.0897217	0.000457764	
5.2298	-0.090332	0.000457764	
5.2298	-0.0894165	0.000762939	
5.2298	-0.0891113	0.000762939	
5.2301	-0.0897217	0.000305176	
5.2298	-0.0897217	0.000610352	
5.2298	-0.0900269	0.000762939	
5.2301	-0.0897217	0.000152588	
5.2298	-0.0894165	0.000305176	
5.2298	-0.0900269	0.000457764	
5.2301	-0.090332	0.000457764	
5.22888	-0.0900269	0.000305176	
5.22614	-0.0897217	0	
5.22491	-0.0894165	0.000305176	
5.22491	-0.0900269	0.000762939	
5.22491	-0.0897217	0.000305176	
5.22522	-0.0894165	0.000457764	
5.22491	-0.0897217	0.000610352	
5.22522	-0.0894165	0.000457764	
5.22522	-0.090332	0.000457764	
5.22491	-0.0897217	0.000457764	
5.22491	-0.0897217	0.000305176	
5.22461	-0.0894165	-0.000152588	
5.22552	-0.0897217	0.000152588	
5.22491	-0.0900269	0.000457764	
5.22491	-0.090332	0.000305176	
5.22491	-0.0900269	0.000305176	
5.22522	-0.0900269	0.000152588	
5.22461	-0.0900269	0.000457764	
5.22522	-0.0900269	0.000610352	
5.22491	-0.0897217	0.000610352	
5.22491	-0.0891113	0.000457764	
5.22552	-0.0900269	0.000457764	
5.22461	-0.0894165	0.000457764	
5.22491	-0.0891113	0.000457764	
5.22491	-0.0900269	0.000610352	
5.22491	-0.0897217	0.000305176	
5.22522	-0.0894165	0.000457764	
5.22491	-0.0900269	0.000152588	
5.22522	-0.0897217	0.000152588	
5.22461	-0.0894165	0.000457764	
5.22339	-0.0897217	0.000305176	
5.22125	-0.0894165	0.000457764	
5.22095	-0.0900269	0.000457764	
5.22034	-0.0900269	0.000457764	
5.22034	-0.0897217	0.000457764	
5.22003	-0.0897217	0.000457764	
5.21973	-0.0900269	0.000610352	
5.21973	-0.0900269	0.000457764	
5.22034	-0.0897217	0.000152588	
5.22034	-0.0900269	0.000305176	
5.22064	-0.0897217	0.000305176	
5.22003	-0.0900269	0.000305176	
5.22064	-0.090332	0.000152588	
5.22003	-0.0900269	0.000610352	
5.21973	-0.0894165	0.000762939	
5.22034	-0.0900269	0.000305176	
5.22034	-0.0894165	0.000762939	
5.22064	-0.0906372	0.000610352	
5.22003	-0.0894165	0.000305176	
5.21973	-0.0900269	0.000610352	
5.21973	-0.0897217	0.000305176	
5.22034	-0.0897217	0	
5.22003	-0.0897217	0.000152588	
5.21973	-0.0900269	0.000305176	
5.22003	-0.090332	0.000152588	
5.22034	-0.0894165	0.000305176	
5.22003	-0.0900269	0.000457764	
5.22064	-0.0900269	0.000305176	
5.22003	-0.090332	0.000305176	
5.22064	-0.0897217	0.000762939	
5.22003	-0.0894165	0.000457764	
5.22034	-0.0906372	0.000457764	
5.22034	-0.0894165	0.000610352	
5.21912	-0.0900269	0.000457764	
5.21851	-0.090332	0.000152588	
5.21545	-0.0897217	0.000152588	
5.21515	-0.0894165	0.000457764	
5.21484	-0.0897217	0.000152588	
5.21515	-0.0900269	0.000457764	
5.21515	-0.0900269	0.000305176	
5.21484	-0.0897217	0.000457764	
5.21484	-0.0897217	0.000915527	
5.21515	-0.0894165	0.000762939	
5.21484	-0.0894165	0.000457764	
5.21545	-0.0894165	0.000610352	
5.21515	-0.0900269	0.000152588	
5.21545	-0.0894165	0.000762939	
5.21484	-0.0894165	0.000457764	
5.21454	-0.0894165	0.000152588	
5.21484	-0.090332	0.000457764	
5.21515	-0.0900269	0.000152588	
5.21515	-0.0897217	0	
5.21423	-0.0900269	0.000457764	
5.21515	-0.0891113	0.000152588	
5.21484	-0.0897217	0.000762939	
5.21515	-0.0900269	0.000610352	
5.21545	-0.0897217	0.000457764	
5.21515	-0.0897217	0.000305176	
5.21515	-0.0900269	0.000152588	
5.21484	-0.0894165	0.000457764	
5.21515	-0.0897217	0.000152588	
5.21515	-0.0900269	0	
5.21545	-0.0894165	0	
5.21484	-0.090332	0.000152588	
5.21545	-0.0897217	0.000610352	
5.21515	-0.0900269	0.000152588	
5.21545	-0.0894165	0.000457764	
5.21423	-0.0900269	0.000152588	
5.21484	-0.0891113	0.000610352	
5.21515	-0.0897217	0.000762939	
5.21545	-0.0897217	0.000457764	
5.21484	-0.0900269	0.000152588	
5.21362	-0.0897217	0.000305176	
5.21118	-0.0891113	0.000305176	
5.21088	-0.0894165	0	
5.21027	-0.0897217	0.000610352	
5.21027	-0.0894165	0.000610352	
5.20996	-0.0900269	0.000305176	
5.21057	-0.0900269	0.000610352	
5.20966	-0.0900269	0.000305176	
5.20996	-0.0900269	0.000457764	
5.21057	-0.0894165	0.000457764	
5.21027	-0.0900269	0.000610352	
5.21027	-0.0891113	0.000457764	
5.21057	-0.0891113	0.000610352	
5.21057	-0.0900269	0.000457764	
5.21027	-0.0900269	0.000610352	
5.21057	-0.0909424	0	
5.21027	-0.0900269	0.000305176	
5.21088	-0.0897217	0.000610352	
5.21027	-0.0900269	0.000610352	
5.21027	-0.0897217	0.000457764	
5.20996	-0.0900269	0.000152588	
5.21057	-0.0897217	0.000610352	
5.21057	-0.0900269	0.000305176	
5.21027	-0.0897217	0.000457764	
5.21057	-0.0897217	0.000457764	
5.21027	-0.0897217	0.000305176	
5.21057	-0.090332	0	
5.21057	-0.0906372	0.000305176	
5.21088	-0.0897217	0.000457764	
5.21027	-0.0897217	0.000152588	
5.21057	-0.0897217	0.000305176	
5.21027	-0.0897217	0.000152588	
5.21088	-0.0897217	0.000305176	
5.21088	-0.0894165	0.000305176	
5.21057	-0.0894165	0.000457764	
5.21027	-0.090332	0.000457764	
5.20996	-0.090332	0.000610352	
5.20996	-0.0897217	0.000915527	
5.21027	-0.0897217	0.000610352	
5.20996	-0.0897217	0.000457764	
5.21027	-0.0897217	0.000457764	
5.21088	-0.0897217	0.000762939	
5.20874	-0.0906372	0.000152588	
5.20721	-0.090332	0	
5.20538	-0.0897217	0.000305176	
5.20569	-0.0900269	0	
5.20538	-0.0897217	0.000457764	
5.20477	-0.0894165	0.000457764	
5.20538	-0.0872803	0.000457764	
5.20569	-0.0854492	0.000305176	
5.20569	-0.0845337	0.000915527	
5.20538	-0.0842285	0.000610352	
5.20538	-0.0848389	0.000610352	
5.20538	-0.0845337	0.000762939	
5.20569	-0.0845337	0.000915527	
5.20569	-0.0854492	0.000305176	
5.20599	-0.0842285	0.000152588	
5.20508	-0.0848389	0.000457764	
5.20569	-0.0845337	0.000152588	
5.20569	-0.0845337	0.000305176	
5.20538	-0.085144	0.000457764	
5.20508	-0.085144	0.000915527	
5.20538	-0.0845337	0.000915527	
5.20508	-0.085144	0.000610352	
5.20508	-0.0848389	0.000457764	
5.20538	-0.0845337	0.000610352	
5.20569	-0.0848389	0.000457764	
5.20599	-0.0848389	0.000762939	
5.20569	-0.0845337	0.000305176	
5.20477	-0.0845337	0	
5.20447	-0.0845337	0.000152588	
5.20599	-0.085144	0.000152588	
5.20569	-0.085144	0.000152588	
5.20508	-0.0845337	0.000305176	
5.20569	-0.085144	0.000762939	
5.20538	-0.085144	0.000762939	
5.20569	-0.0854492	0.000610352	
5.20569	-0.0848389	0.000610352	
5.20599	-0.0845337	0.000610352	
5.20508	-0.0845337	0.000915527	
5.20599	-0.085144	0.000610352	
5.20477	-0.085144	0.000457764	
5.20508	-0.0848389	0.000457764	
5.20569	-0.0848389	0.000305176	
5.20538	-0.0848389	0.000457764	
5.20538	-0.085144	0.000610352	
5.20508	-0.0848389	0.000152588	
5.20538	-0.0848389	0.000457764	
5.20569	-0.085144	0.000152588	
5.20599	-0.0848389	0.000762939	
5.20355	-0.085144	0.000915527	
5.20142	-0.0848389	0.000457764	
5.2005	-0.0839233	0.000305176	
5.20081	-0.085144	0.000457764	
5.2005	-0.085144	0.000457764	
5.2005	-0.0857544	0.000152588	
5.20111	-0.085144	0.000152588	
5.2002	-0.0845337	0.000457764	
5.2005	-0.085144	0.000457764	
5.2002	-0.0848389	0.000305176	
5.2002	-0.0845337	0.000305176	
5.19989	-0.085144	0.000457764	
5.2005	-0.085144	0.000457764	
5.20081	-0.0854492	0.000305176	
5.2005	-0.0842285	0.000457764	
5.2005	-0.0854492	0.000610352	
5.2002	-0.085144	0.000152588	
5.2005	-0.0848389	0.000457764	
5.20111	-0.085144	0.000457764	
5.2005	-0.0848389	0.000152588	
5.20142	-0.0848389	0.000152588	
5.20081	-0.085144	0.000610352	
5.2005	-0.085144	0.000305176	
5.2005	-0.085144	0.000457764	
5.2002	-0.0848389	0.000305176	
5.2005	-0.0848389	0.000610352	
5.20081	-0.0848389	0.000305176	
5.2002	-0.0845337	0.000915527	
5.20081	-0.0845337	0.000457764	
5.2002	-0.085144	0.000305176	
5.2005	-0.0854492	0.000457764	
5.2005	-0.0848389	0.000152588	
5.20111	-0.085144	0.000152588	
5.2005	-0.0848389	0.000152588	
5.19989	-0.0845337	0.000457764	
5.2005	-0.085144	0.000457764	
5.19989	-0.085144	0.000305176	
5.2002	-0.085144	0.000762939	
5.20081	-0.0848389	0.000152588	
5.2005	-0.0845337	0.000457764	
5.20111	-0.0845337	0.000610352	
5.2002	-0.0854492	0.000305176	
5.2005	-0.0848389	0.000762939	
5.20081	-0.0848389	0.000610352	
5.20081	-0.0845337	0.000457764	
5.2002	-0.0848389	0.000152588	
5.2005	-0.0845337	0	
5.2002	-0.0848389	0.000457764	
5.2005	-0.0845337	0.000610352	
5.2002	-0.0857544	0.000152588	
5.2005	-0.0848389	0.000305176	
5.19989	-0.0848389	0.000305176	
5.2005	-0.0845337	0.000305176	
5.2005	-0.085144	0.000610352	
5.2005	-0.085144	0.000610352	
5.2002	-0.085144	0.000305176	
5.2005	-0.0854492	0.000457764	
5.19958	-0.0854492	0.000457764	
5.19714	-0.0848389	0.000457764	
5.19592	-0.0848389	0.000305176	
5.19562	-0.0848389	0.000305176	
5.19531	-0.0854492	0.000457764	
5.19623	-0.085144	0.000152588	
5.19531	-0.085144	0.000305176	
5.19592	-0.0842285	0.000305176	
5.19592	-0.0848389	0.000457764	
5.19501	-0.0848389	0.000457764	
5.19531	-0.085144	0.000762939	
5.19562	-0.0848389	0.000457764	
5.19562	-0.085144	0.000457764	
5.19531	-0.0848389	0.000305176	
5.19562	-0.085144	0.000152588	
5.19562	-0.0845337	0.000305176	
5.19562	-0.0842285	0.000152588	
5.19623	-0.0845337	0.000457764	
5.19592	-0.0854492	0.000305176	
5.19562	-0.0857544	0.000457764	
5.19531	-0.0845337	0.000610352	
5.19562	-0.085144	0.000457764	
5.19531	-0.085144	0.000762939	
5.19562	-0.0848389	0.000457764	
5.19562	-0.0848389	0.000457764	
5.19592	-0.0848389	0.000152588	
5.19531	-0.0848389	0.000610352	
5.19531	-0.0845337	0.000610352	
5.19592	-0.0848389	0.000305176	
5.19562	-0.0848389	0.000152588	
5.19562	-0.0842285	0.000305176	
5.19531	-0.085144	0.000305176	
5.19531	-0.0845337	0	
5.19562	-0.0854492	0.000152588	
5.19562	-0.0854492	0.000152588	
5.19531	-0.0848389	0.000305176	
5.19562	-0.0854492	0.000762939	
5.19592	-0.0845337	0.000610352	
5.19501	-0.0854492	0.000305176	
5.19562	-0.0860596	0.000457764	
5.19592	-0.0848389	0.000610352	
5.19623	-0.0854492	0.000152588	
5.19531	-0.0848389	-0.000152588	
5.19562	-0.0854492	0	
5.19562	-0.0845337	0.000305176	
5.19562	-0.085144	0.000457764	
5.19562	-0.0845337	0.000457764	
5.19531	-0.0848389	0.000610352	
5.19562	-0.085144	0.000610352	
5.19623	-0.085144	0.000457764	
5.19592	-0.0845337	0.000457764	
5.19531	-0.085144	0.000457764	
5.19562	-0.0845337	0.000457764	
5.19531	-0.0848389	0.000457764	
5.19562	-0.0842285	0.000457764	
5.19562	-0.0848389	0	
5.19623	-0.085144	0.000152588	
5.19562	-0.085144	0.000762939	
5.19562	-0.085144	0.000152588	
5.19562	-0.085144	0.000305176	
5.19531	-0.0854492	0.000457764	
5.19592	-0.0842285	0.000457764	
5.19562	-0.0848389	0.000762939	
5.19531	-0.0848389	0.000305176	
5.19562	-0.0848389	0.000305176	
5.19531	-0.0842285	0.000457764	
5.19592	-0.0854492	0.000457764	
5.19592	-0.0845337	0.000610352	
5.19531	-0.085144	0.000457764	
5.19531	-0.085144	0.000305176	
5.19592	-0.085144	0.000457764	
5.19592	-0.085144	0.000305176	
5.19562	-0.0854492	0.000457764	
5.19592	-0.0848389	0.000457764	
5.19501	-0.0845337	0.000610352	
5.19562	-0.0848389	0.000762939	
5.19501	-0.0848389	0.000457764	
5.19623	-0.085144	0.000457764	
5.19623	-0.0857544	0.000457764	
5.19562	-0.085144	0.000457764	
5.1947	-0.0845337	0.000762939	
5.19562	-0.0857544	0.000305176	
5.19562	-0.085144	0.000152588	
5.19409	-0.0848389	0.000457764	
5.19165	-0.085144	0.000152588	
5.19073	-0.0848389	0.000305176	
5.19043	-0.085144	0.000457764	
5.18982	-0.0848389	0.000305176	
5.19073	-0.085144	0.000305176	
5.19043	-0.0848389	0.000610352	
5.19043	-0.0848389	0.000305176	
5.19135	-0.085144	0.000457764	
5.19073	-0.0848389	0.000610352	
5.19073	-0.0848389	0.000457764	
5.19073	-0.085144	0.000457764	
5.19073	-0.085144	0.000152588	
5.19073	-0.0845337	0.000457764	
5.19104	-0.0845337	0.000762939	
5.19012	-0.0854492	0.000457764	
5.19043	-0.0854492	0.000305176	
5.19073	-0.0823975	0.000305176	
5.19043	-0.0802612	0.000152588	
5.19073	-0.0796509	0.000762939	
5.19104	-0.0799561	0.000915527	
5.18951	-0.0793457	0.000457764	
5.18982	-0.0802612	0.000457764	
5.18982	-0.0802612	0.000457764	
5.19012	-0.0799561	0.000305176	
5.19073	-0.0796509	0.000305176	
5.19073	-0.0799561	0.000152588	
5.19073	-0.0799561	0.000305176	
5.19104	-0.0796509	0.000762939	
5.19043	-0.0802612	0	
5.19043	-0.0793457	0.000152588	
5.19104	-0.0799561	0.000305176	
5.19073	-0.0796509	0.000610352	
5.19104	-0.0799561	0.000305176	
5.19073	-0.0802612	0.000457764	
5.19043	-0.0796509	0.000457764	
5.19073	-0.0802612	0.000610352	
5.19012	-0.0799561	0.000762939	
5.19043	-0.0802612	0.000305176	
5.19043	-0.0802612	0	
5.19043	-0.0799561	0	
5.19104	-0.0796509	0.000457764	
5.19012	-0.0799561	0.000305176	
5.19073	-0.0799561	0.000610352	
5.19043	-0.0799561	0.000457764	
5.19104	-0.0802612	0.000305176	
5.19073	-0.0799561	0.000610352	
5.19073	-0.0787354	0.000305176	
5.19104	-0.0802612	0.000762939	
5.19073	-0.0802612	0.000305176	
5.19043	-0.0796509	0.000762939	
5.19135	-0.0799561	0.000305176	
5.19073	-0.0799561	0.000152588	
5.19043	-0.0805664	0.000457764	
5.19043	-0.0793457	0.000457764	
5.19043	-0.0796509	0.000152588	
5.19104	-0.0802612	0.000305176	
5.19043	-0.0799561	0.000305176	
5.19073	-0.0802612	0.000762939	
5.19012	-0.0802612	0.00106812	
5.19104	-0.0796509	0.000305176	
5.19043	-0.0799561	0.000457764	
5.19104	-0.0796509	0.000457764	
5.19043	-0.0805664	0.000305176	
5.19012	-0.0799561	0.000762939	
5.19073	-0.0799561	0.000152588	
5.19104	-0.0805664	0.000152588	
5.19073	-0.0799561	0.000305176	
5.19073	-0.0799561	0.000305176	
5.19043	-0.0802612	0.000152588	
5.19043	-0.0805664	0.000457764	
5.19012	-0.0799561	0.000610352	
5.18982	-0.0799561	0.000610352	
5.19104	-0.0802612	0.000305176	
5.19043	-0.0796509	0.000610352	
5.19104	-0.0799561	0.000610352	
5.19012	-0.0802612	0.000457764	
5.19073	-0.0802612	0.000762939	
5.19073	-0.0796509	0.000152588	
5.19104	-0.0799561	-0.000152588	
5.19043	-0.0802612	0.000305176	
5.19073	-0.0772095	0.000457764	
5.19104	-0.0759888	0.000610352	
5.19043	-0.0753784	0.000610352	
5.19073	-0.0753784	0.000305176	
5.18982	-0.0747681	0.000610352	
5.19043	-0.0753784	0.000610352	
5.19043	-0.0744629	0.000762939	
5.19104	-0.0759888	0.000457764	
5.18951	-0.0750732	0.000305176	
5.19043	-0.0753784	0.000305176	
5.19043	-0.0747681	0.000457764	
5.19073	-0.0750732	0	
5.19104	-0.0756836	0.000152588	
5.19012	-0.0753784	0.000305176	
5.18982	-0.0753784	0.000305176	
5.18921	-0.0750732	0.000457764	
5.18646	-0.0753784	0.000457764	
5.18616	-0.0723267	0.000305176	
5.18524	-0.071106	0.000305176	
5.18433	-0.0695801	0.000305176	
5.18616	-0.0701904	0.000610352	
5.18616	-0.0708008	0.000762939	
5.18585	-0.0701904	0.000305176	
5.18555	-0.0701904	0.000610352	
5.18555	-0.0708008	0.000152588	
5.18616	-0.0704956	-0.000152588	
5.18616	-0.0701904	0.000305176	
5.18524	-0.0701904	0.000457764	
5.18494	-0.067749	0.000152588	
5.18585	-0.0662231	0.000305176	
5.18555	-0.0650024	0.000610352	
5.18585	-0.0646973	0.000915527	
5.18524	-0.065918	0.000610352	
5.18616	-0.0653076	0.000610352	
5.18555	-0.0653076	0.000457764	
5.18585	-0.0653076	0.000305176	
5.18585	-0.0653076	0.000305176	
5.18585	-0.0631714	0.000457764	
5.18585	-0.06073	0.000305176	
5.18616	-0.0601196	0.000152588	
5.18585	-0.0604248	0.000457764	
5.18494	-0.06073	0.000457764	
5.18616	-0.0604248	0.000305176	
5.18524	-0.0604248	0.000610352	
5.18555	-0.0579834	0.000610352	
5.18585	-0.0561523	0.000457764	
5.18585	-0.055542	0.000915527	
5.18555	-0.055542	0.000305176	
5.18555	-0.055542	0.000305176	
5.18585	-0.0552368	0.000305176	
5.18585	-0.0531006	0.000305176	
5.18555	-0.0512695	0	
5.18555	-0.050354	0.000305176	
5.18524	-0.0509644	0.000305176	
5.18555	-0.050354	0.000152588	
5.18585	-0.0482178	0.000305176	
5.18585	-0.0460815	0.000305176	
5.18585	-0.0457764	0.000457764	
5.18524	-0.0454712	0.000915527	
5.18555	-0.0457764	0.000457764	
5.18616	-0.043335	0.000610352	
5.18585	-0.0408936	0.000457764	
5.18616	-0.0402832	0.000762939	
5.18555	-0.0405884	0.000457764	
5.18585	-0.038147	0.000152588	
5.18555	-0.0363159	0.000457764	
5.18585	-0.0363159	0.000457764	
5.18555	-0.0360107	0.000610352	
5.18555	-0.0357056	0.000152588	
5.18555	-0.0338745	0.000457764	
5.18616	-0.0320435	0.000305176	
5.18585	-0.0314331	0.000610352	
5.18555	-0.0308228	0.000152588	
5.18585	-0.0280762	0.000152588	
5.18585	-0.0268555	0.000610352	
5.18555	-0.0265503	0	
5.18555	-0.0234985	0.000305176	
5.18585	-0.0216675	0.000457764	
5.18433	-0.0216675	0	
5.18158	-0.0216675	0.000305176	
5.18066	-0.0192261	0.000457764	
5.18097	-0.0167847	0.000457764	
5.18066	-0.0167847	0.000610352	
5.18066	-0.0134277	0.000305176	
5.18066	-0.0115967	0.000610352	
5.18097	-0.0112915	0.000457764	
5.18127	-0.0088501	0.000457764	
5.18066	-0.00671387	0.000152588	
5.18005	-0.00640869	-0.000152588	
5.18097	-0.00396729	0.000152588	
5.18158	-0.00213623	0.000610352	
5.18097	-0.00152588	0	
5.18097	0.000610352	0.000305176	
5.18097	0.00274658	0.000305176	
5.18005	0.00305176	0.000457764	
5.18158	0.00579834	0.000152588	
5.18097	0.00732422	0.000457764	
5.18127	0.00823975	0.000457764	
5.17975	0.010376	0.000762939	
5.18036	0.0128174	0.000457764	
5.18036	0.0131226	0.000457764	
5.18097	0.0152588	0.000457764	
5.18097	0.0183105	0.000457764	
5.18097	0.0183105	0.000457764	
5.18097	0.0201416	0.000305176	
5.18005	0.0216675	0	
5.18097	0.0250244	0.000610352	
5.18158	0.0265503	0.000152588	
5.18066	0.0274658	0.000152588	
5.18066	0.0299072	0.000457764	
5.18097	0.0314331	0.000457764	
5.18127	0.0354004	0.000762939	
5.18066	0.0372314	0.000457764	
5.18097	0.0372314	0.000457764	
5.18127	0.0396729	0.000457764	
5.18066	0.0424194	0	
5.18097	0.045166	0.000762939	
5.18158	0.0463867	0.000152588	
5.18036	0.0473022	0.000152588	
5.18097	0.0497437	0.000152588	
5.18127	0.0515747	0.000305176	
5.18127	0.0546265	0.000152588	
5.18066	0.0567627	0.000457764	
5.18097	0.0598145	0.000305176	
5.18097	0.0619507	0.000762939	
5.18066	0.062561	0.000610352	
5.18036	0.0646973	0.000610352	
5.18066	0.0662231	0.000762939	
5.17883	0.0695801	0.000762939	
5.17731	0.0714111	0.000610352	
5.17578	0.0744629	0.000610352	
5.17578	0.0765991	0.000305176	
5.17578	0.0787354	0.000457764	
5.17609	0.0805664	0.000762939	
5.17548	0.0830078	0.000152588	
5.17578	0.0854492	0.000152588	
5.17609	0.0860596	0.000457764	
5.17639	0.088501	0.000457764	
5.17578	0.090332	0.000762939	
5.17609	0.0927734	0.000610352	
5.17578	0.09552	0.000305176	
5.17548	0.0982666	0.000305176	
5.17609	0.100403	0.000610352	
5.17578	0.10376	0.000457764	
5.17639	0.10498	0.000305176	
5.17517	0.108032	0.000305176	
5.17548	0.110168	0.000305176	
5.17548	0.11261	0.000305176	
5.17548	0.115051	0.000152588	
5.17578	0.115662	0.000305176	
5.17548	0.118103	0.000915527	
5.17609	0.119629	0.000610352	
5.17578	0.122681	0.000457764	
5.17609	0.124512	0.000457764	
5.17578	0.126953	0.000305176	
5.17578	0.128784	0.000305176	
5.17609	0.132446	0.000610352	
5.17639	0.134583	0.000305176	
5.17609	0.137329	-0.000152588	
5.17639	0.139771	0.000305176	
5.17578	0.142822	0.000457764	
5.17578	0.144958	0.000305176	
5.17578	0.147705	0.000152588	
5.1767	0.149536	0.000457764	
5.17639	0.152588	0.000915527	
5.17548	0.154724	0.000457764	
5.17548	0.156555	0.000457764	
5.17578	0.159302	0.000152588	
5.17548	0.162048	0.000762939	
5.17548	0.163574	0.000457764	
5.17517	0.16449	0.000305176	
5.17609	0.166626	0	
5.17578	0.168152	0.000305176	
5.17609	0.170898	0.000305176	
5.17609	0.17334	0.000457764	
5.17548	0.176392	0.000610352	
5.17181	0.178528	0.000305176	
5.17151	0.181274	0.000457764	
5.1712	0.1828	0.000762939	
5.1709	0.186768	0.000915527	
5.1709	0.188599	0.000152588	
5.1709	0.191345	0.000610352	
5.1712	0.193176	0.000457764	
5.1709	0.194092	0.000152588	
5.17029	0.195923	0.000152588	
5.1709	0.198364	-0.000152588	
5.1712	0.200806	0.000305176	
5.1709	0.203857	0.000305176	
5.17059	0.205078	0.000152588	
5.17029	0.207825	0.000610352	
5.17151	0.211182	0.000457764	
5.17029	0.213318	0.000762939	
5.1709	0.215759	0.000915527	
5.1712	0.21759	0.000610352	
5.17029	0.218506	0.000610352	
5.1712	0.220947	0.000305176	
5.17029	0.222473	0.000610352	
5.17059	0.22583	0.000457764	
5.1709	0.227356	-0.000152588	
5.17059	0.231323	0	
5.17029	0.232239	0.000457764	
5.17059	0.233459	0.000457764	
5.1712	0.235901	0.000457764	
5.1712	0.237122	0.000152588	
5.1709	0.240173	0.000762939	
5.1709	0.24231	0.000152588	
5.17059	0.243225	0.000457764	
5.1709	0.244751	0.000610352	
5.1712	0.247192	0.000305176	
5.17059	0.249939	0.000610352	
5.1712	0.252075	0.000152588	
5.1709	0.252686	0.000457764	
5.1709	0.255127	0.000457764	
5.17029	0.256958	0.000457764	
5.1712	0.26001	0.000152588	
5.1709	0.262451	0.000305176	
5.1712	0.262451	0.000610352	
5.1712	0.265198	0.000762939	
5.1709	0.267029	0.000610352	
5.17059	0.267944	0.000762939	
5.17151	0.270081	0.000457764	
5.16937	0.271606	0.000457764	
5.16724	0.275574	0.000457764	
5.16541	0.276794	0.000762939	
5.16541	0.2771	0	
5.16541	0.279846	0	
5.16541	0.282288	0.000457764	
5.16602	0.282288	0	
5.16479	0.284119	0	
5.16541	0.286865	0.000457764	
5.16541	0.286865	0.000152588	
5.16602	0.289917	0.000457764	
5.16632	0.290527	0.000457764	
5.16602	0.292053	0.000457764	
5.16632	0.294189	0.000457764	
5.16602	0.296021	0.000610352	
5.16602	0.296631	0.000610352	
5.16571	0.299683	0.000610352	
5.16602	0.301208	0.000152588	
5.16632	0.302124	0.000305176	
5.16632	0.302124	0.000457764	
5.16663	0.304565	0.000457764	
5.16602	0.306091	0.000457764	
5.16693	0.306702	0.000457764	
5.16663	0.309143	0.000305176	
5.16541	0.311584	0.000457764	
5.16571	0.312195	0.000457764	
5.16571	0.311584	0.000305176	
5.16541	0.313721	0.000762939	
5.16541	0.316162	0.000762939	
5.16571	0.315857	0.000152588	
5.16571	0.316467	0.000305176	
5.16663	0.319519	0.000610352	
5.16602	0.32074	0.000305176	
5.16571	0.321045	0.000152588	
5.16602	0.321045	0.000457764	
5.16632	0.323486	0.000457764	
5.16541	0.325623	0.000610352	
5.16571	0.326843	0.000457764	
5.16602	0.325928	0.000457764	
5.16602	0.328674	0.000457764	
5.16602	0.330811	0.000762939	
5.16632	0.331421	0.000457764	
5.16602	0.332031	0.000915527	
5.16632	0.330811	0.000305176	
5.16602	0.332947	0.000152588	
5.16663	0.335083	0.000762939	
5.16571	0.336609	0.000305176	
5.1651	0.336304	0.000305176	
5.16479	0.336304	0.000457764	
5.16205	0.33783	0.000457764	
5.16052	0.340576	0.000457764	
5.16083	0.340881	0.000457764	
5.16083	0.340576	0.000305176	
5.16113	0.340576	0.000457764	
5.16144	0.341187	0.000610352	
5.16022	0.343628	0.000610352	
5.16144	0.344543	0.000152588	
5.16113	0.345154	0.000152588	
5.16113	0.345764	0	
5.16113	0.345764	0.000305176	
5.16113	0.345459	0.000152588	
5.16083	0.348206	0.000457764	
5.16113	0.349426	0.000762939	
5.16174	0.350647	0.000305176	
5.16052	0.350952	0.000305176	
5.16113	0.350647	0.000915527	
5.16083	0.350342	0.000762939	
5.16113	0.350342	0.000457764	
5.16113	0.350952	0.000610352	
5.16144	0.350342	0.000457764	
5.16083	0.353088	0	
5.16174	0.355835	0.000152588	
5.16083	0.35553	0.000457764	
5.16144	0.355835	0.000152588	
5.16113	0.35553	0.000457764	
5.16113	0.355835	0.000152588	
5.16113	0.355835	0.000305176	
5.16052	0.35614	0.000762939	
5.16083	0.355835	0.000610352	
5.16113	0.355835	0.000457764	
5.16052	0.355835	0.000305176	
5.16113	0.358276	0.000152588	
5.16113	0.360413	0.000762939	
5.16083	0.360413	0.000152588	
5.16083	0.360107	0.000457764	
5.16113	0.360413	0.000305176	
5.16022	0.360413	0.000457764	
5.16052	0.360413	0	
5.16052	0.360413	0.000457764	
5.16174	0.360107	0.000610352	
5.16113	0.360413	0.000915527	
5.16113	0.360107	0.000457764	
5.16113	0.360413	0.000610352	
5.16113	0.360413	0.000457764	
5.16083	0.360107	0.000610352	
5.16113	0.360718	0.000457764	
5.16144	0.361023	0.000152588	
5.16113	0.361023	0.000305176	
5.16052	0.360718	0.000457764	
5.16083	0.360413	0.000610352	
5.16083	0.360413	0.000152588	
5.16022	0.360718	0.000610352	
5.15747	0.361328	0.000152588	
5.15564	0.361328	0.000610352	
5.15594	0.361023	0.000457764	
5.15625	0.360718	0.000762939	
5.15625	0.360718	0.000152588	
5.15564	0.361023	0.000305176	
5.15564	0.361328	0.000305176	
5.15564	0.361023	0.000457764	
5.15564	0.360718	0	
5.15625	0.361023	0.000305176	
5.15533	0.361023	0.000762939	
5.15656	0.360413	0.000610352	
5.15564	0.361023	0.000152588	
5.15625	0.360413	0.000457764	
5.15503	0.360718	0.000610352	
5.15656	0.360718	0.000610352	
5.15564	0.360718	0.000457764	
5.15564	0.361328	0.000152588	
5.15625	0.360107	0.000457764	
5.15656	0.361328	0.000457764	
5.15564	0.360107	0.000457764	
5.15594	0.360107	0.000305176	
5.15594	0.358276	0.000152588	
5.15564	0.35553	0.000457764	
5.15625	0.355225	0.000305176	
5.15503	0.35553	0.000457764	
5.15656	0.356445	0.000305176	
5.15656	0.35553	0.000457764	
5.15564	0.35675	0.000762939	
5.15594	0.356445	0.000610352	
5.15594	0.35614	0.000457764	
5.15594	0.355835	0.000305176	
5.15717	0.356445	0.000457764	
5.15625	0.355835	0.000762939	
5.15533	0.355835	0.000457764	
5.15625	0.353088	-0.000152588	
5.15686	0.351868	0.000152588	
5.15533	0.350647	0.000457764	
5.15533	0.351563	0.000152588	
5.15533	0.351257	0.000457764	
5.15625	0.350647	0.000305176	
5.15625	0.350952	0.000457764	
5.15656	0.350647	0.000457764	
5.15564	0.350952	0.000915527	
5.15533	0.3479	0.000457764	
5.15625	0.345764	0.000457764	
5.15625	0.345764	0.000610352	
5.15656	0.346069	0.000305176	
5.15625	0.345764	0.000305176	
5.15564	0.345154	0.000305176	
5.15625	0.345764	0.000305176	
5.15533	0.345459	0.000305176	
5.15625	0.345459	0.000457764	
5.15625	0.343323	0.000457764	
5.15594	0.341187	0.000457764	
5.15564	0.340881	0.000762939	
5.15625	0.340576	0.000457764	
5.15656	0.340576	0.000152588	
5.15625	0.341797	0.000457764	
5.15564	0.340881	0.000152588	
5.15625	0.33905	0.000610352	
5.15594	0.336304	0.000152588	
5.15564	0.336304	0.000305176	
5.15594	0.335693	0.000457764	
5.15564	0.335693	0.000305176	
5.15411	0.336304	0.000457764	
5.15198	0.336304	0.000762939	
5.15167	0.333557	0.000762939	
5.15167	0.332031	0.000762939	
5.15137	0.331116	0.000305176	
5.15137	0.330811	0.000457764	
5.15137	0.330811	0.000152588	
5.15045	0.331116	0	
5.15137	0.32959	0.000762939	
5.15137	0.326538	0.000152588	
5.15045	0.325623	0.000152588	
5.15137	0.326538	0.000305176	
5.15137	0.326233	0.000457764	
5.15137	0.326233	0.000457764	
5.15076	0.323792	0.000457764	
5.15045	0.32135	0.000305176	
5.15076	0.32074	0.000457764	
5.15045	0.321655	0.000610352	
5.15106	0.321045	0.000762939	
5.15198	0.32135	0.000457764	
5.15137	0.318909	0.000305176	
5.15137	0.317383	0.000152588	
5.15137	0.316467	0	
5.15167	0.315857	0.000305176	
5.15167	0.316772	0.000610352	
5.15137	0.314636	0.000762939	
5.15076	0.312195	0.000457764	
5.15076	0.310974	0	
5.15137	0.312195	0.000762939	
5.15137	0.31189	0.000610352	
5.15106	0.309753	0.000762939	
5.15137	0.307922	0.000152588	
5.15137	0.306702	0.000152588	
5.15137	0.306702	0.000457764	
5.15167	0.307007	0.000457764	
5.15076	0.304871	0.000305176	
5.15106	0.302734	0.000305176	
5.15076	0.301208	0	
5.15137	0.301514	0.000305176	
5.15076	0.302124	0	
5.15137	0.298767	-0.000152588	
5.15106	0.298157	0.000457764	
5.15106	0.297241	0.000305176	
5.15106	0.296631	0.000610352	
5.15137	0.296631	0	
5.15198	0.294189	0.000457764	
5.15045	0.292358	0.000305176	
5.15137	0.291138	0.000457764	
5.15076	0.292053	0.000762939	
5.15137	0.292358	0.000305176	
5.15045	0.289307	-0.000152588	
5.15167	0.287476	0.000152588	
5.15137	0.287781	0.000457764	
5.15137	0.287781	0.000610352	
5.15106	0.284729	0.000457764	
5.15106	0.282593	0.000610352	
5.15015	0.281982	0.000305176	
5.15137	0.282288	0.000762939	
5.15137	0.281982	0.000610352	
5.15076	0.279846	0.000457764	
5.15137	0.277405	0.000762939	
5.15137	0.276794	0.000152588	
5.15076	0.276489	0.000152588	
5.15106	0.2771	0.000305176	
5.15167	0.275269	0.000305176	
5.15137	0.272522	0.000610352	
5.15198	0.271606	0.000305176	
5.15137	0.272522	0.000762939	
5.15137	0.269775	0.000457764	
5.15137	0.26825	0.000457764	
5.15076	0.267334	0.000457764	
5.15106	0.267334	0.000762939	
5.15106	0.264893	0.000457764	
5.15137	0.263367	0.000762939	
5.15137	0.262146	0.000457764	
5.15137	0.262756	0.000457764	
5.15137	0.263062	0.000152588	
5.15137	0.260315	0.000152588	
5.15045	0.257874	0.000457764	
5.15106	0.257263	0.000457764	
5.15137	0.256958	0	
5.15076	0.255127	0.000457764	
5.15137	0.252686	0.000457764	
5.15167	0.252991	0.000457764	
5.15137	0.253296	0	
5.15106	0.250854	0.000457764	
5.15106	0.248108	0.000610352	
5.15167	0.247803	0.000305176	
5.15106	0.247498	0.000152588	
5.15076	0.247192	0.000457764	
5.15106	0.245667	0.000152588	
5.15137	0.24353	0.000152588	
5.15106	0.242615	0.000457764	
5.15167	0.243225	0.000457764	
5.15106	0.240479	0.000152588	
5.15106	0.237732	0.000457764	
5.15137	0.238037	0.000610352	
5.15106	0.238037	0.000457764	
5.14954	0.235596	0.000610352	
5.1474	0.23407	0.000610352	
5.14618	0.233154	0.000457764	
5.14618	0.233765	0	
5.14587	0.231323	0.000762939	
5.14557	0.229187	0.000152588	
5.14648	0.228271	0.000152588	
5.14679	0.228271	0.000915527	
5.14648	0.226135	0.000305176	
5.14587	0.224304	0.000457764	
5.14587	0.223389	0.000610352	
5.14618	0.223389	0.000762939	
5.14648	0.223694	0.000457764	
5.14648	0.221558	0.000457764	
5.14557	0.219116	0.000457764	
5.14587	0.218811	0.000457764	
5.14648	0.218201	0.000305176	
5.14648	0.216064	0.000457764	
5.14587	0.213318	0	
5.14587	0.213623	0.000152588	
5.14648	0.213623	0.000305176	
5.14648	0.211182	0	
5.14648	0.209045	0.000152588	
5.14618	0.20813	0.000457764	
5.14648	0.209045	0.000457764	
5.14648	0.206299	0.000457764	
5.14648	0.204468	0.000152588	
5.14587	0.203857	0.000457764	
5.14587	0.203247	0.000457764	
5.14618	0.203552	0.000305176	
5.14618	0.201721	0.000305176	
5.14618	0.199585	0.000457764	
5.14648	0.198669	0	
5.14587	0.198364	0.000457764	
5.14618	0.196228	0.000457764	
5.14648	0.194397	0.000305176	
5.14648	0.193481	0.000305176	
5.14557	0.193481	0.000305176	
5.14648	0.191956	0.000457764	
5.14526	0.189514	0.000305176	
5.14648	0.188599	0.000610352	
5.14648	0.189514	0.000915527	
5.14618	0.188904	0.000457764	
5.14648	0.186157	0.000457764	
5.14648	0.185242	0.000305176	
5.14618	0.184021	0.000457764	
5.14679	0.183716	0	
5.14587	0.181885	0.000457764	
5.14618	0.179443	0.000305176	
5.14587	0.179138	0.000305176	
5.14648	0.179138	0.000457764	
5.14557	0.179443	0	
5.14648	0.177612	0.000762939	
5.14557	0.174866	0.000305176	
5.14679	0.174561	0.000610352	
5.14618	0.174561	0.000152588	
5.14587	0.171509	0.000457764	
5.14618	0.169373	0.000305176	
5.14618	0.169067	0.000305176	
5.14648	0.169983	0	
5.14618	0.169678	0.000305176	
5.14679	0.166931	0.000152588	
5.14587	0.1651	0.000305176	
5.14648	0.164185	0.000762939	
5.14557	0.163879	0.000152588	
5.14648	0.162048	0.000457764	
5.14648	0.160217	0.000305176	
5.14587	0.158997	0.000305176	
5.14648	0.159302	0.000610352	
5.14648	0.158997	0.000152588	
5.14679	0.157166	0.000457764	
5.14648	0.155334	0.000305176	
5.14618	0.155334	-0.000152588	
5.14618	0.154724	0.000457764	
5.14557	0.154724	0.000305176	
5.14618	0.152893	0.000305176	
5.14587	0.150452	0.000610352	
5.14618	0.150146	0.000457764	
5.14587	0.149536	0.000457764	
5.14587	0.150452	0.000610352	
5.14587	0.147705	0.000457764	
5.14679	0.145264	0.000457764	
5.14557	0.144653	0.000305176	
5.14648	0.144653	0.000457764	
5.14587	0.144958	0.000457764	
5.14618	0.142822	0.000457764	
5.14648	0.140991	0.000457764	
5.14587	0.139465	0.000457764	
5.14648	0.139771	0.000457764	
5.14648	0.140381	0.000457764	
5.14557	0.137939	0.000610352	
5.14648	0.135193	0.000762939	
5.14618	0.135193	0.000762939	
5.14648	0.135193	0.000305176	
5.14709	0.135193	0.000457764	
5.14679	0.132751	0.000305176	
5.14587	0.13092	0.000152588	
5.14648	0.130005	0.000457764	
5.14648	0.13031	-0.000152588	
5.14618	0.130005	0.000152588	
5.14648	0.13031	0.000762939	
5.14618	0.127869	0.000457764	
5.14618	0.126038	0	
5.14587	0.124817	0	
5.14679	0.125427	0.000457764	
5.14587	0.125122	0.000610352	
5.14526	0.123596	0.000610352	
5.14618	0.121155	0.000457764	
5.14648	0.120544	0.000610352	
5.14587	0.12085	0.000305176	
5.14648	0.119934	0.000457764	
5.14648	0.120239	0.000610352	
5.14618	0.118408	-0.000152588	
5.14648	0.115967	0.000305176	
5.14618	0.115356	0.000610352	
5.14587	0.115662	0	
5.14709	0.115356	0.000457764	
5.14648	0.114746	0.000457764	
5.14557	0.11322	0.000762939	
5.14648	0.110779	0.000610352	
5.14648	0.110168	0.000457764	
5.14648	0.110779	0.000915527	
5.14648	0.109863	0.000457764	
5.14618	0.110779	0.000457764	
5.14648	0.108643	0.000457764	
5.14587	0.106201	0.000305176	
5.14618	0.10498	0.000457764	
5.14618	0.105591	0.000305176	
5.14648	0.105896	0.000305176	
5.14618	0.105286	0.000457764	
5.14648	0.104065	0.000457764	
5.14618	0.101318	0.000762939	
5.14557	0.100403	0.000762939	
5.14648	0.100098	0.000610352	
5.14648	0.101013	0.000457764	
5.14587	0.0997925	0.000457764	
5.14587	0.0979614	0.000457764	
5.14648	0.0967407	0.000457764	
5.14648	0.0958252	0.000457764	
5.14648	0.0958252	-0.000152588	
5.14587	0.0961304	0.000457764	
5.14618	0.0964355	0.000457764	
5.14618	0.0961304	0.000305176	
5.14648	0.0939941	0.000305176	
5.14648	0.0912476	0.000762939	
5.14648	0.0912476	0.000915527	
5.14587	0.0909424	0.000457764	
5.14587	0.0912476	0.000610352	
5.14618	0.0909424	0.000610352	
5.14618	0.0906372	0.000152588	
5.14618	0.088501	0.000610352	
5.14557	0.0860596	0.000152588	
5.14648	0.0854492	0	
5.14557	0.0857544	0.000457764	
5.14618	0.0857544	0.000610352	
5.14618	0.0866699	0.000152588	
5.14648	0.0854492	0.000457764	
5.14587	0.0842285	0.000305176	
5.14557	0.0814819	0.000457764	
5.14679	0.0811768	0.000305176	
5.14648	0.0811768	0.000762939	
5.14648	0.0814819	0.000457764	
5.14648	0.0808716	0	
5.14648	0.0811768	0.000610352	
5.14679	0.0802612	0.000457764	
5.14679	0.0778198	0.000305176	
5.14618	0.0778198	0.000457764	
5.14557	0.0772095	0.000305176	
5.14587	0.0769043	0.000305176	
5.14648	0.0765991	0.000762939	
5.14679	0.0765991	0.000457764	
5.14587	0.0747681	0.000457764	
5.14557	0.072937	0.000610352	
5.14648	0.0720215	0.000457764	
5.14648	0.0723267	0.000305176	
5.14557	0.0717163	0.000610352	
5.14618	0.0714111	0.000457764	
5.14618	0.0723267	0.000457764	
5.1474	0.0723267	0	
5.14984	0.0695801	0.000305176	
5.15137	0.0674438	0.000305176	
5.15106	0.0662231	0.000457764	
5.15076	0.0671387	0.000457764	
5.15106	0.0674438	0.000305176	
5.15167	0.0662231	0.000457764	
5.15076	0.0674438	0.000762939	
5.15167	0.0665283	0.000305176	
5.15045	0.0646973	0.000457764	
5.15045	0.0628662	0.000152588	
5.15045	0.0622559	0.000305176	
5.15106	0.0622559	0.000762939	
5.15137	0.0616455	0.000457764	
5.15076	0.0619507	-0.000152588	
5.15045	0.0619507	0.000152588	
5.15137	0.0622559	0.000305176	
5.15076	0.0601196	0.000457764	
5.15076	0.0576782	0.000610352	
5.15076	0.057373	0.000457764	
5.15106	0.057373	0.000762939	
5.15076	0.0579834	0.000457764	
5.15137	0.057373	0.000457764	
5.15045	0.057373	0.000762939	
5.15137	0.057373	0.000305176	
5.15106	0.057373	0.000457764	
5.15076	0.0552368	0.000152588	
5.15076	0.0531006	0.000305176	
5.15106	0.0521851	0.000610352	
5.15045	0.0521851	0.000305176	
5.15045	0.0524902	0.000152588	
5.15137	0.0521851	0.000610352	
5.15045	0.0524902	0.000152588	
5.15106	0.0527954	0.000762939	
5.15106	0.0521851	0.000762939	
5.15137	0.0494385	0.000762939	
5.15198	0.0482178	0.000457764	
5.15106	0.0469971	0.000457764	
5.15137	0.0476074	0.000152588	
5.15137	0.0469971	0.000457764	
5.15045	0.0469971	0	
5.15045	0.0476074	0.000610352	
5.15137	0.0479126	0.000305176	
5.15137	0.0473022	0.000305176	
5.15137	0.0454712	0	
5.15137	0.0427246	0.000305176	
5.15137	0.0427246	0.000305176	
5.15045	0.0424194	0.000762939	
5.15167	0.0424194	0.000915527	
5.15076	0.0424194	0.000305176	
5.15045	0.043335	0.000457764	
5.15045	0.0424194	0.000305176	
5.15137	0.0424194	0.000457764	
5.15137	0.0405884	0.000152588	
5.15198	0.038147	0.000152588	
5.15076	0.0375366	0.000152588	
5.15137	0.0378418	0.000610352	
5.15106	0.0375366	0.000152588	
5.15137	0.038147	0.000457764	
5.15106	0.0378418	0.000762939	
5.15106	0.0384521	0.000762939	
5.15137	0.0375366	0.000762939	
5.15076	0.0372314	0.000915527	
5.15137	0.0354004	0.000457764	
5.15167	0.0332642	0.000762939	
5.15076	0.0326538	0.000152588	
5.15137	0.0320435	0.000457764	
5.15076	0.032959	0.000152588	
5.15137	0.0323486	0.000152588	
5.15076	0.0323486	0.000610352	
5.15106	0.0323486	0.000152588	
5.15106	0.0323486	0.000762939	
5.15106	0.0326538	0.000305176	
5.15259	0.0302124	0.000457764	
5.15411	0.0286865	0.000457764	
5.15564	0.0274658	0.000915527	
5.15625	0.0280762	0.000152588	
5.15594	0.0280762	0.000457764	
5.15625	0.0271606	0.000457764	
5.15564	0.0274658	0.000457764	
5.15594	0.0280762	0.000152588	
5.15625	0.0274658	0.000305176	
5.15594	0.027771	0.000457764	
5.15564	0.0256348	0.000152588	
5.15564	0.0234985	0.000152588	
5.15594	0.022583	0.000457764	
5.15594	0.0222778	0.000610352	
5.15594	0.0234985	0.000457764	
5.15564	0.0228882	0.000305176	
5.15625	0.0238037	0.000457764	
5.15625	0.0231934	0.000305176	
5.15625	0.0228882	0.000305176	
5.15533	0.022583	0.000305176	
5.15594	0.022583	0	
5.15625	0.0201416	0	
5.15656	0.0186157	0.000152588	
5.15625	0.0180054	0.000457764	
5.15533	0.0183105	0.000305176	
5.15564	0.0180054	0.000610352	
5.15625	0.0186157	0.000610352	
5.15564	0.0183105	0.000610352	
5.15564	0.0180054	0.000457764	
5.15533	0.0183105	0.000762939	
5.15564	0.0177002	0.000305176	
5.15503	0.0186157	0.000457764	
5.15656	0.0158691	0.000610352	
5.15594	0.0140381	0.000457764	
5.15625	0.0131226	0.000152588	
5.15625	0.0128174	0.000305176	
5.15625	0.0128174	0.000152588	
5.15625	0.0128174	0.000152588	
5.15656	0.0128174	0.000305176	
5.15625	0.0131226	0.000457764	
5.15625	0.0137329	0.000915527	
5.15594	0.0128174	0.000610352	
5.15564	0.0100708	0.000305176	
5.15533	0.00854492	0.000457764	
5.15625	0.00823975	0.000915527	
5.15594	0.00762939	0.000610352	
5.15686	0.00793457	0.000610352	
5.1593	0.00823975	0.000457764	
5.16113	0.00762939	0	
5.16022	0.00732422	0.000610352	
5.16083	0.00732422	0.000305176	
5.16113	0.00793457	0.000152588	
5.16083	0.00793457	0.000762939	
5.16083	0.00610352	0.000305176	
5.16113	0.00366211	0.000610352	
5.16113	0.00335693	0.000457764	
5.16144	0.00274658	0.000610352	
5.16113	0.00305176	0.000457764	
5.16113	0.00335693	0.000457764	
5.16113	0.00274658	0.000610352	
5.16113	0.00305176	0.000457764	
5.16052	0.00305176	0.000305176	
5.16083	0.00335693	0.000305176	
5.16052	0.00274658	0.000457764	
5.16144	0.000915527	0.000457764	
5.16083	-0.000915527	0.000457764	
5.16113	-0.0012207	0.000305176	
5.16113	-0.00152588	0.000610352	
5.16113	-0.00183105	0.000762939	
5.16144	-0.00152588	0.000762939	
5.16144	-0.0012207	0.000610352	
5.16083	-0.00213623	0.000152588	
5.16083	-0.00152588	0.000610352	
5.16083	-0.00152588	0.000610352	
5.16113	-0.0012207	0.000305176	
5.16113	-0.00366211	0.000305176	
5.16083	-0.00610352	0.000457764	
5.16113	-0.00640869	0.000457764	
5.16144	-0.00671387	0.000457764	
5.16113	-0.00671387	0.000762939	
5.16052	-0.00579834	0.000762939	
5.16235	-0.00640869	0.000915527	
