model_ppg1.acq
0.5 msec/sample
3 channels
RSP, X, RSPEC-R
Volts
PPG, X, PPGED-R
Volts
ECG, Y, RSPEC-R
mV
CH1	CH2	CH13	
257128	257128	257128	
1.9046	-0.0704956	0.000457764	
1.90552	-0.0704956	0.000457764	
1.90613	-0.0701904	0.000305176	
1.90948	-0.0708008	0.0012207	
1.91132	-0.0701904	0.000457764	
1.91467	-0.0701904	0.000457764	
1.9165	-0.0701904	0.000457764	
1.92017	-0.0701904	0.000610352	
1.92078	-0.0708008	0.000305176	
1.92169	-0.0695801	0.000610352	
1.92383	-0.0708008	0.000457764	
1.92688	-0.0704956	0.000305176	
1.92902	-0.0704956	0	
1.93024	-0.0698853	0.000762939	
1.93146	-0.0695801	0.000457764	
1.93451	-0.0701904	0.000915527	
1.93634	-0.0695801	0.000610352	
1.93817	-0.0701904	0.000305176	
1.94061	-0.0701904	0.000457764	
1.94092	-0.0704956	0.000457764	
1.94397	-0.0708008	0.000457764	
1.94611	-0.0708008	0.000152588	
1.94885	-0.0704956	-0.000305176	
1.95038	-0.0698853	0.000457764	
1.95038	-0.0708008	0.000762939	
1.95435	-0.0701904	0	
1.95679	-0.0704956	0.000610352	
1.95892	-0.0704956	0.000457764	
1.95984	-0.0704956	0.000457764	
1.96014	-0.0701904	0.000762939	
1.9635	-0.071106	0.000915527	
1.96655	-0.0704956	0.000762939	
1.96899	-0.0698853	0.000152588	
1.96991	-0.0704956	0.000915527	
1.96991	-0.0704956	0.000762939	
1.97388	-0.0708008	0.000305176	
1.97571	-0.0708008	0.000305176	
1.97815	-0.0701904	0.000305176	
1.97968	-0.0704956	0.000152588	
1.98059	-0.0704956	0.000457764	
1.98273	-0.0701904	0.000457764	
1.98486	-0.0704956	0.000610352	
1.98883	-0.0695801	0.000305176	
1.98944	-0.0704956	0.0012207	
1.99036	-0.0701904	0.000305176	
1.9931	-0.0708008	0.000610352	
1.99493	-0.0701904	0.000152588	
1.99768	-0.0698853	0.000305176	
1.99982	-0.0704956	0	
2.00317	-0.0708008	0.000457764	
2.00531	-0.0704956	0.000457764	
2.00531	-0.0698853	0.000152588	
2.00836	-0.0698853	0	
2.00989	-0.0698853	0.000610352	
2.01324	-0.0704956	0.000457764	
2.01447	-0.0701904	0.000762939	
2.01538	-0.0704956	0.000457764	
2.01843	-0.0698853	0.000305176	
2.01965	-0.0701904	0	
2.02271	-0.0701904	0.00106812	
2.02423	-0.0704956	0.000762939	
2.02423	-0.0698853	0.000457764	
2.02789	-0.0698853	-0.000152588	
2.02911	-0.0704956	0.000915527	
2.03339	-0.0708008	0.000457764	
2.034	-0.0701904	0.000610352	
2.0343	-0.0701904	0	
2.03766	-0.0701904	0.000762939	
2.03949	-0.0701904	0.000152588	
2.04224	-0.0704956	0.000762939	
2.04407	-0.0674438	0.000305176	
2.04437	-0.0653076	0.000457764	
2.04681	-0.0656128	0	
2.04926	-0.0656128	0.000915527	
2.05231	-0.0646973	0.000457764	
2.05353	-0.0653076	0.000152588	
2.05475	-0.0656128	0.000457764	
2.05688	-0.0653076	0.000305176	
2.05872	-0.0653076	0	
2.06207	-0.0650024	0.000610352	
2.0636	-0.0656128	0.000305176	
2.06421	-0.0650024	0.000610352	
2.06757	-0.0656128	0.000305176	
2.06848	-0.0656128	0.00106812	
2.06879	-0.0656128	0.000457764	
2.07214	-0.0653076	0.000457764	
2.07428	-0.0650024	0.000457764	
2.07703	-0.0650024	0.000610352	
2.07825	-0.0656128	0.000152588	
2.07947	-0.0653076	0.000915527	
2.08221	-0.0662231	0.000457764	
2.08344	-0.0650024	0.000610352	
2.0871	-0.0656128	0.000152588	
2.08862	-0.0656128	0.00106812	
2.08923	-0.0653076	0.000457764	
2.09198	-0.0653076	0.000915527	
2.0932	-0.0653076	0.000762939	
2.09717	-0.0653076	0.000457764	
2.09839	-0.0653076	0.000457764	
2.099	-0.0653076	0.000762939	
2.10144	-0.0653076	0.000305176	
2.10388	-0.0650024	0.000305176	
2.10663	-0.0656128	0	
2.10785	-0.0653076	0.000762939	
2.10846	-0.0646973	0.000610352	
2.11182	-0.0650024	0.000457764	
2.11365	-0.065918	0.000457764	
2.117	-0.0650024	0.000457764	
2.11761	-0.0650024	0.000457764	
2.11884	-0.0650024	0.00106812	
2.12128	-0.0653076	0.000457764	
2.1225	-0.0653076	0.000152588	
2.12372	-0.0656128	0.000152588	
2.12677	-0.0650024	0.00106812	
2.1283	-0.0650024	0.000457764	
2.13074	-0.0650024	0.000152588	
2.13257	-0.0653076	0.000457764	
2.13379	-0.0650024	0.000610352	
2.13593	-0.0653076	0.000152588	
2.13837	-0.0650024	0.000457764	
2.14111	-0.0653076	0.000152588	
2.14233	-0.0656128	0.000762939	
2.14294	-0.0653076	0.000610352	
2.14722	-0.0619507	0.0012207	
2.14874	-0.06073	0.000610352	
2.15149	-0.0604248	0.000610352	
2.15271	-0.06073	0.000610352	
2.15332	-0.0604248	0.000305176	
2.15607	-0.0604248	0.000152588	
2.1579	-0.0598145	0.000457764	
2.1582	-0.0601196	0.000305176	
2.16095	-0.0604248	0.000305176	
2.16309	-0.0598145	-0.000457764	
2.16644	-0.0601196	0.000762939	
2.16705	-0.0610352	0.000305176	
2.16827	-0.0598145	0.000610352	
2.17163	-0.0604248	0.000457764	
2.17194	-0.0601196	0.000610352	
2.17316	-0.06073	0.000152588	
2.1756	-0.0604248	0.000610352	
2.17865	-0.0598145	0.000457764	
2.18079	-0.0601196	0.000305176	
2.18201	-0.0604248	-0.000457764	
2.18262	-0.0601196	0.000762939	
2.18597	-0.06073	0.000457764	
2.18719	-0.0601196	0.000305176	
2.19025	-0.06073	0.000152588	
2.19177	-0.0595093	0.000305176	
2.19238	-0.0604248	0.000305176	
2.19452	-0.0610352	0.000610352	
2.19604	-0.06073	0.000457764	
2.19757	-0.0604248	0.000610352	
2.20001	-0.0610352	0.000152588	
2.20215	-0.0604248	0.000762939	
2.2049	-0.0598145	0.000610352	
2.20703	-0.0598145	0.000152588	
2.20795	-0.0604248	0.000457764	
2.21039	-0.0610352	0.000305176	
2.211	-0.06073	0	
2.21222	-0.0604248	0.000305176	
2.21497	-0.0604248	0.000152588	
2.21649	-0.0604248	0.000610352	
2.21771	-0.06073	0.000457764	
2.21924	-0.0604248	0.00106812	
2.22198	-0.0601196	0.000457764	
2.22443	-0.0604248	0.000457764	
2.22565	-0.0610352	0.000610352	
2.22717	-0.06073	0.000457764	
2.22961	-0.0604248	0.000152588	
2.23175	-0.0601196	0.000305176	
2.23236	-0.06073	0.000305176	
2.23511	-0.0610352	0.000610352	
2.23663	-0.0604248	0	
2.2406	-0.0598145	0.000762939	
2.24152	-0.0604248	0.000457764	
2.24213	-0.06073	0.000915527	
2.24487	-0.0598145	0.000305176	
2.24609	-0.0604248	0.000457764	
2.2467	-0.06073	0.000305176	
2.24976	-0.0604248	0.000915527	
2.25128	-0.0601196	0.000457764	
2.2522	-0.0601196	0.000152588	
2.25464	-0.057373	-0.000610352	
2.25616	-0.0561523	0.000915527	
2.25952	-0.0552368	0.000152588	
2.26074	-0.0549316	0.000305176	
2.26196	-0.0549316	0.000152588	
2.26501	-0.0558472	0.000305176	
2.26624	-0.0552368	0.000305176	
2.26654	-0.0552368	0.000610352	
2.26898	-0.0552368	0.000915527	
2.27051	-0.0549316	0.000610352	
2.27203	-0.0561523	0.000152588	
2.27417	-0.055542	0.000762939	
2.27631	-0.055542	0.000915527	
2.27966	-0.0558472	0.000305176	
2.28058	-0.055542	0.000152588	
2.2818	-0.0552368	0.000762939	
2.28424	-0.055542	0	
2.28546	-0.0552368	0.000610352	
2.28699	-0.055542	0.000457764	
2.28912	-0.0552368	0.000610352	
2.29095	-0.0558472	0.000457764	
2.29126	-0.0558472	0.000915527	
2.29401	-0.0558472	0.000915527	
2.29553	-0.0558472	0.000457764	
2.29584	-0.055542	0.000457764	
2.29889	-0.0552368	0.000457764	
2.30072	-0.0558472	0	
2.30133	-0.0549316	0.000610352	
2.30408	-0.055542	0.000762939	
2.30621	-0.0558472	0.000457764	
2.30957	-0.0558472	0	
2.31079	-0.0549316	0.000762939	
2.3111	-0.0558472	0.000610352	
2.31384	-0.0558472	0.000915527	
2.31567	-0.055542	0.000457764	
2.31567	-0.055542	0.000305176	
2.31934	-0.0552368	0	
2.32025	-0.0552368	0.000762939	
2.32147	-0.0524902	0.000610352	
2.32422	-0.0512695	0.000152588	
2.32544	-0.0506592	-0.000305176	
2.32574	-0.0509644	0.000915527	
2.32941	-0.0506592	0.000305176	
2.33032	-0.050354	0	
2.33093	-0.0506592	0.000305176	
2.33368	-0.0509644	0.000610352	
2.33521	-0.050354	0.000305176	
2.33612	-0.050354	0.000762939	
2.33887	-0.0506592	0.000762939	
2.33978	-0.050354	0.000762939	
2.34039	-0.0506592	0	
2.34375	-0.0509644	0.00106812	
2.34497	-0.0506592	0.000152588	
2.3465	-0.050354	0	
2.34863	-0.050354	0.000457764	
2.35046	-0.0476074	0.000457764	
2.35382	-0.0463867	0.000457764	
2.35443	-0.0457764	0.000457764	
2.35596	-0.0460815	0.000305176	
2.3587	-0.0457764	0.000457764	
2.35992	-0.0460815	0.000457764	
2.35992	-0.0457764	0.00106812	
2.36328	-0.0457764	0.000457764	
2.3642	-0.0460815	0.000915527	
2.36481	-0.045166	0.000610352	
2.36877	-0.0454712	0.000457764	
2.36969	-0.0424194	0	
2.37061	-0.0408936	0.000457764	
2.37305	-0.0405884	0.000305176	
2.37427	-0.0411987	0.000305176	
2.37457	-0.0411987	-0.000152588	
2.37793	-0.0405884	0.000915527	
2.37946	-0.0415039	0.000305176	
2.38098	-0.0402832	0.000915527	
2.38342	-0.0402832	0.000610352	
2.38434	-0.038147	0.000762939	
2.38434	-0.0360107	0.000152588	
2.38861	-0.0360107	0.000762939	
2.38861	-0.0357056	0.000762939	
2.38983	-0.0357056	0.000152588	
2.38983	-0.0357056	-0.000152588	
2.39258	-0.0357056	0.000457764	
2.39441	-0.0350952	0.000305176	
2.39502	-0.0323486	0.000610352	
2.39838	-0.0311279	0.000457764	
2.39868	-0.0308228	0.000457764	
2.39929	-0.0311279	0.000610352	
2.40265	-0.0308228	0.000915527	
2.40417	-0.0308228	0.00106812	
2.40509	-0.0271606	0.000457764	
2.40753	-0.0265503	0.000152588	
2.40936	-0.0259399	0.00106812	
2.40967	-0.0259399	0.000457764	
2.41302	-0.0259399	-0.000152588	
2.41394	-0.0253296	0.000152588	
2.41516	-0.0228882	0.000457764	
2.41791	-0.0219727	0.000457764	
2.41852	-0.0213623	0.000457764	
2.41974	-0.0219727	0.000305176	
2.42279	-0.0213623	0.000610352	
2.4231	-0.0177002	0.000152588	
2.42493	-0.0167847	0.0012207	
2.42737	-0.0167847	0.000762939	
2.42798	-0.0164795	0.000457764	
2.4295	-0.0158691	0.000305176	
2.43256	-0.0131226	0.000610352	
2.43347	-0.0119019	0	
2.43317	-0.0112915	0.000457764	
2.43439	-0.0112915	0.000610352	
2.43744	-0.00823975	0.000305176	
2.43866	-0.00701904	0.000152588	
2.43958	-0.00610352	0.000915527	
2.44202	-0.00579834	0.000305176	
2.44324	-0.00274658	0.000915527	
2.44415	-0.00152588	0.000457764	
2.4469	-0.00152588	0.000305176	
2.44873	-0.0012207	0.000305176	
2.44934	0.0012207	0.000762939	
2.45178	0.00244141	0.000610352	
2.45331	0.00274658	0	
2.45422	0.00335693	-0.000305176	
2.45728	0.00640869	0.000762939	
2.45819	0.00823975	0.000457764	
2.45911	0.00854492	0.000152588	
2.45941	0.00854492	0.000305176	
2.46185	0.0115967	0.000305176	
2.46338	0.0125122	0.000457764	
2.46429	0.0134277	0.000762939	
2.46674	0.0137329	0.000457764	
2.46857	0.0164795	0.000457764	
2.46948	0.0177002	-0.000152588	
2.47253	0.0183105	0.00106812	
2.47284	0.0213623	0.000305176	
2.47406	0.0222778	0.000305176	
2.47681	0.0234985	0.000305176	
2.47803	0.0262451	0.000305176	
2.47803	0.0274658	0.000152588	
2.47833	0.027771	0.000610352	
2.48199	0.0280762	0.000305176	
2.48352	0.0314331	0.000610352	
2.48444	0.0323486	0.000457764	
2.48657	0.032959	0.00106812	
2.4881	0.0360107	0.000305176	
2.48871	0.0375366	0.000610352	
2.49207	0.0378418	0.000152588	
2.49329	0.0405884	0.000305176	
2.49298	0.0424194	0.000152588	
2.4939	0.0427246	0.000457764	
2.49634	0.0460815	0.000457764	
2.49847	0.0469971	0.000457764	
2.49878	0.0473022	-0.000152588	
2.50153	0.0473022	0.000915527	
2.50244	0.050354	0.000305176	
2.50244	0.0518799	0.000610352	
2.50397	0.0524902	0.000762939	
2.5058	0.0552368	0.000610352	
2.50763	0.0570679	0.000457764	
2.50854	0.0570679	0.000762939	
2.51129	0.0601196	0.000305176	
2.5119	0.0622559	0.000152588	
2.51312	0.0634766	-0.000305176	
2.51556	0.0650024	0.000457764	
2.51801	0.0668335	0.000305176	
2.5174	0.0671387	0.000152588	
2.51801	0.0701904	0.000762939	
2.52136	0.0723267	0.000305176	
2.52258	0.0720215	0.000305176	
2.52319	0.0753784	0.000610352	
2.52625	0.0772095	0.000457764	
2.52747	0.0769043	0.000305176	
2.52747	0.0802612	0	
2.52777	0.0811768	0.000457764	
2.53143	0.0811768	0.000457764	
2.53204	0.0842285	0.000152588	
2.53296	0.0857544	0.000152588	
2.53662	0.0857544	0.000305176	
2.53662	0.0894165	0	
2.53815	0.0909424	0.000610352	
2.53815	0.0909424	0.000305176	
2.5412	0.0942993	0.000305176	
2.54211	0.0958252	0.000457764	
2.54333	0.0961304	0.000915527	
2.54547	0.0982666	0.000457764	
2.54669	0.100403	0.000762939	
2.5473	0.101013	0.000457764	
2.54822	0.10376	0.000305176	
2.55035	0.104675	0.000152588	
2.55219	0.105896	0.000305176	
2.55249	0.108948	0.000457764	
2.5528	0.110168	0.000457764	
2.55524	0.110168	0	
2.55707	0.113525	0.000915527	
2.55859	0.114746	0.000457764	
2.56104	0.116577	0.0012207	
2.56195	0.119019	0.000762939	
2.56226	0.119934	0.000457764	
2.56287	0.12085	0.000152588	
2.56592	0.123596	0.000305176	
2.56714	0.124817	0.000610352	
2.56653	0.125427	0.000152588	
2.56683	0.127869	-0.000305176	
2.56744	0.130005	0.000610352	
2.56714	0.1297	0.000457764	
2.56714	0.132751	0.000305176	
2.56958	0.135193	0.000457764	
2.57172	0.135803	0.000305176	
2.57172	0.137634	0.000610352	
2.57263	0.139465	0.000915527	
2.57538	0.140686	0.000305176	
2.57721	0.143738	0.000305176	
2.5766	0.144958	-0.000152588	
2.57721	0.145264	0.00106812	
2.58026	0.144958	0.000305176	
2.58148	0.14801	0.000305176	
2.58179	0.150146	0.000305176	
2.58209	0.149536	0.000610352	
2.58514	0.153198	0.000457764	
2.58606	0.155029	0.000610352	
2.58698	0.155029	0.000152588	
2.58972	0.157776	0.000610352	
2.59125	0.158691	0.000152588	
2.59094	0.159302	0.0012207	
2.59216	0.159302	0.000762939	
2.59491	0.162659	0.000762939	
2.59644	0.163879	0.000457764	
2.59583	0.164795	0.000457764	
2.59674	0.166931	0.000305176	
2.6001	0.168457	0.000457764	
2.60101	0.169373	0.000457764	
2.60071	0.169678	0.000610352	
2.60162	0.172729	-0.000305176	
2.60468	0.17395	0.000915527	
2.60559	0.174561	0.000610352	
2.60651	0.174866	0.000762939	
2.60956	0.177612	0.000457764	
2.61047	0.178833	0	
2.61139	0.178833	0.000457764	
2.61078	0.179443	0.000305176	
2.61444	0.182495	0.000610352	
2.61566	0.184021	0	
2.61597	0.184021	-0.000457764	
2.61627	0.184021	0.00106812	
2.61963	0.187378	0.000305176	
2.62024	0.188293	0.000152588	
2.62146	0.189209	0.000610352	
2.62177	0.19043	0.000457764	
2.62421	0.191956	0.000762939	
2.62543	0.193481	0.000610352	
2.62573	0.193481	0.000457764	
2.62634	0.194092	0.000762939	
2.62909	0.194092	-0.000152588	
2.63	0.197449	0.00137329	
2.63062	0.198669	0.000305176	
2.63123	0.198669	0	
2.63367	0.19928	0.000305176	
2.63519	0.201721	0.000457764	
2.63672	0.203247	0.000305176	
2.63611	0.203552	0.000305176	
2.64008	0.203552	0.000457764	
2.64038	0.203857	0.000305176	
2.64069	0.203857	0	
2.64221	0.207214	0.0012207	
2.64465	0.20874	0.000457764	
2.64526	0.20813	0.000457764	
2.64526	0.20813	0.000152588	
2.64679	0.209045	0.000152588	
2.64923	0.212097	0.000305176	
2.65015	0.213013	0.000152588	
2.65045	0.213928	0	
2.65045	0.213623	0.000457764	
2.65442	0.213623	-0.000305176	
2.65533	0.213623	0.0012207	
2.65533	0.216675	0.000610352	
2.65656	0.21759	0.000610352	
2.659	0.218811	0.000457764	
2.65991	0.218506	0.000610352	
2.6593	0.218506	0.000457764	
2.66113	0.218506	0.000457764	
2.66357	0.221558	0.000610352	
2.66479	0.223083	0.000305176	
2.6651	0.223389	-0.000457764	
2.66602	0.222778	0.0012207	
2.66876	0.223083	0.000457764	
2.66968	0.223389	0.000152588	
2.67029	0.222473	0	
2.6709	0.223694	0.000610352	
2.67365	0.227051	0.000915527	
2.67487	0.227966	0.000305176	
2.67578	0.228577	0.000610352	
2.67578	0.228271	0.000457764	
2.67822	0.227966	-0.000152588	
2.67975	0.228271	0.00106812	
2.68036	0.227966	0.000305176	
2.68005	0.227966	0.000305176	
2.68066	0.229187	0.000152588	
2.68341	0.230713	0.000457764	
2.68494	0.232849	0.000152588	
2.68463	0.233154	0.000610352	
2.68585	0.233459	0.000305176	
2.6886	0.233154	0.000610352	
2.69043	0.232544	0.000305176	
2.68982	0.232544	0.00137329	
2.69104	0.232849	0.000610352	
2.69379	0.233154	0.000762939	
2.6944	0.233154	0.000457764	
2.69531	0.233459	0.000610352	
2.69531	0.236511	0.000305176	
2.69867	0.237122	0.000305176	
2.69867	0.238037	0.000152588	
2.7005	0.238037	0.000457764	
2.69958	0.237427	-0.000305176	
2.69989	0.238342	0.00137329	
2.70264	0.238342	0.000762939	
2.70447	0.238342	0.000915527	
2.70508	0.238342	0.000457764	
2.70569	0.238037	0.000610352	
2.70874	0.238037	0.000305176	
2.70905	0.238342	0.000762939	
2.71027	0.238342	0.000610352	
2.71027	0.238342	0.000305176	
2.71301	0.237732	-0.000305176	
2.71484	0.237732	0.000457764	
2.71423	0.237732	0.000305176	
2.71484	0.237732	0.000305176	
2.71545	0.238037	0.000457764	
2.7182	0.241089	0.000305176	
2.71973	0.242615	0.000305176	
2.72003	0.243225	0.000457764	
2.72034	0.243225	0.000610352	
2.72278	0.242615	0.000305176	
2.7243	0.24231	-0.000152588	
2.7243	0.242615	0.00106812	
2.72461	0.242615	0.000762939	
2.72552	0.24292	0.000305176	
2.72766	0.243225	0.000305176	
2.7298	0.243225	0.000305176	
2.7298	0.24231	0.000305176	
2.72949	0.24292	0.000457764	
2.73315	0.24231	0.000457764	
2.73468	0.243225	0.000305176	
2.73529	0.24292	0.000152588	
2.73468	0.242615	0.0012207	
2.7356	0.24292	0.000457764	
2.73743	0.24292	0.000610352	
2.73926	0.24231	0.000457764	
2.73956	0.243225	0.000457764	
2.74078	0.24231	0.000610352	
2.74261	0.24292	0.000610352	
2.74292	0.24231	0.000305176	
2.74414	0.243225	0.000610352	
2.74414	0.244141	-0.000457764	
2.74475	0.24292	0.000915527	
2.7475	0.24292	0.000762939	
2.74902	0.24353	0.000762939	
2.74811	0.242615	0.000610352	
2.74811	0.24292	0.000457764	
2.74994	0.243835	0.000457764	
2.75238	0.24231	0.000915527	
2.75391	0.242615	0.000610352	
2.75482	0.242615	0.000457764	
2.75452	0.243225	-0.000152588	
2.75726	0.24231	0.0012207	
2.75879	0.24231	0.000305176	
2.75879	0.242615	0.000457764	
2.75909	0.24292	0.000457764	
2.7597	0.239868	0.000457764	
2.76306	0.237732	0.000457764	
2.76398	0.238037	0.000457764	
2.76337	0.238037	0.000457764	
2.76428	0.238037	0.000305176	
2.76459	0.238037	-0.000152588	
2.76764	0.238037	0.0012207	
2.76886	0.238342	0.000305176	
2.76917	0.238037	0.000305176	
2.76886	0.238342	0.000152588	
2.76978	0.238342	0.000305176	
2.77222	0.237732	0.000457764	
2.77344	0.237732	0.000457764	
2.77374	0.237732	0.000610352	
2.77374	0.238037	0.000457764	
2.77466	0.238037	0.000305176	
2.7774	0.238037	0.000762939	
2.77863	0.238037	0.00106812	
2.77954	0.238037	0.000305176	
2.77924	0.237732	0.000610352	
2.77893	0.238037	0.000305176	
2.78168	0.238037	0.000457764	
2.7832	0.237732	0.000305176	
2.78351	0.238037	0.000152588	
2.78503	0.238342	0.000457764	
2.78748	0.238037	0.000152588	
2.789	0.235291	0	
2.789	0.233765	0.000762939	
2.7887	0.233459	0.000915527	
2.78961	0.233154	0.000457764	
2.79175	0.233154	0.000915527	
2.79327	0.233154	0.000762939	
2.79388	0.233154	0.000610352	
2.79358	0.232849	0.000305176	
2.79358	0.233459	0.000457764	
2.79449	0.233459	-0.000305176	
2.79663	0.233459	0	
2.79846	0.233459	0.000762939	
2.79877	0.232849	0.000610352	
2.79907	0.233459	0.000457764	
2.79907	0.233154	0.000610352	
2.80182	0.233459	0.000457764	
2.80396	0.233459	0.000610352	
2.80365	0.232544	0.000762939	
2.80334	0.233154	0.000610352	
2.80457	0.230103	0.000305176	
2.80701	0.228271	0.000610352	
2.80884	0.227661	0.000762939	
2.80823	0.228271	0.000152588	
2.80884	0.227661	0.000457764	
2.81006	0.227966	0	
2.81158	0.227966	0.000457764	
2.81372	0.227356	0.000305176	
2.81311	0.228577	0.000457764	
2.81311	0.227661	0.000457764	
2.81372	0.228271	0.000762939	
2.81677	0.228271	0.000457764	
2.81769	0.228271	0.0012207	
2.8183	0.228271	0.000610352	
2.81799	0.228271	0.000610352	
2.81738	0.228271	0.000762939	
2.81891	0.224915	0.000610352	
2.82135	0.223694	0.000152588	
2.82227	0.223083	0.000457764	
2.82349	0.223389	0.000152588	
2.82318	0.222778	0.000305176	
2.8241	0.223694	0.000152588	
2.82654	0.223694	0.00106812	
2.82806	0.223389	0.000915527	
2.82867	0.223389	0.000915527	
2.82806	0.223389	0.000610352	
2.82837	0.223389	0.000305176	
2.83081	0.223083	0.000762939	
2.83295	0.223389	0.000305176	
2.83295	0.223694	0.000305176	
2.83325	0.223083	0	
2.83295	0.220337	0	
2.83417	0.218811	0.000915527	
2.8363	0.218506	0.000457764	
2.83813	0.218201	0.000610352	
2.83813	0.218201	0.000610352	
2.83875	0.218506	0.000305176	
2.83875	0.218506	0.000152588	
2.84119	0.218201	0.000457764	
2.84241	0.217896	0.000457764	
2.84271	0.218811	0.000305176	
2.84241	0.218506	0.000457764	
2.84302	0.218201	0.00106812	
2.84363	0.218201	0.000305176	
2.84576	0.218506	0.000305176	
2.8476	0.218201	0.000610352	
2.84821	0.215149	0.000610352	
2.8479	0.214233	0.000610352	
2.8476	0.214233	0.000152588	
2.84821	0.213623	0.000457764	
2.85156	0.213623	0.000610352	
2.85187	0.213623	0.000457764	
2.85278	0.213928	0.000305176	
2.85278	0.213318	0.000762939	
2.85217	0.212708	0.000762939	
2.85339	0.213318	0.000610352	
2.85614	0.213318	0.000305176	
2.85675	0.213623	0.000305176	
2.85797	0.213318	0.000457764	
2.85797	0.213623	0.000305176	
2.85889	0.213928	0.000152588	
2.86072	0.213013	0.000762939	
2.86224	0.210266	0.000610352	
2.86224	0.20874	0.000305176	
2.86255	0.208435	0.000915527	
2.86255	0.207825	0.000457764	
2.86377	0.20813	0.000610352	
2.86591	0.20874	0.000305176	
2.86652	0.209045	0.000762939	
2.86774	0.209045	0.000152588	
2.86743	0.20874	-0.000152588	
2.86743	0.20813	0.000457764	
2.86804	0.20813	0.000610352	
2.87079	0.208435	-0.000152588	
2.87262	0.20874	0.000762939	
2.87292	0.208435	0.000457764	
2.87231	0.205383	0.000762939	
2.87262	0.204163	0.000610352	
2.87262	0.203857	0.000762939	
2.87323	0.204163	0.000610352	
2.87598	0.203552	0	
2.8775	0.203552	0.000610352	
2.8772	0.204163	0.000305176	
2.8775	0.203857	0	
2.8775	0.203857	0.000762939	
2.8775	0.203552	0.000457764	
2.88086	0.203552	0	
2.88208	0.203857	0.000457764	
2.88269	0.202942	0.000305176	
2.88208	0.200806	0.000152588	
2.88208	0.19928	0.000457764	
2.88269	0.19928	0.000915527	
2.88605	0.198059	0.000762939	
2.88696	0.198975	0.000305176	
2.88788	0.198364	0.000915527	
2.88727	0.198364	0.000610352	
2.88727	0.19928	0.000457764	
2.88757	0.198364	0.000305176	
2.88818	0.198059	0	
2.89032	0.198975	0.000457764	
2.89185	0.198364	0.000305176	
2.89246	0.198669	0.000610352	
2.89154	0.195923	0.000457764	
2.89246	0.194092	0.000152588	
2.89276	0.193481	0.000762939	
2.89581	0.193787	0.000457764	
2.89673	0.193481	0.000152588	
2.89764	0.193787	0.000610352	
2.89734	0.193176	0.000610352	
2.89764	0.193787	0.000457764	
2.89734	0.193481	0	
2.89795	0.194092	0.000457764	
2.901	0.193481	0.000457764	
2.901	0.193481	0	
2.90222	0.19043	0.00106812	
2.90253	0.189209	0.000762939	
2.90253	0.188599	0.000457764	
2.90222	0.189209	0.000610352	
2.90283	0.188599	0.000762939	
2.90619	0.189514	0.000610352	
2.90649	0.188599	0.000305176	
2.90741	0.188599	0.000762939	
2.90741	0.188904	0.000457764	
2.90741	0.188904	0	
2.9071	0.189209	0.000915527	
2.90802	0.188904	0.000457764	
2.91016	0.185852	0.000457764	
2.91229	0.183716	0.000152588	
2.91199	0.184021	0.000457764	
2.91168	0.184021	0.000762939	
2.91199	0.184021	0.000457764	
2.91229	0.184021	0.000762939	
2.9129	0.184021	0.000762939	
2.91565	0.183411	0.000152588	
2.91748	0.183716	0.0012207	
2.91656	0.183105	0.000457764	
2.91748	0.183716	0.000457764	
2.91748	0.18158	0.000305176	
2.91656	0.178833	0.000152588	
2.91809	0.178833	0.000457764	
2.92023	0.179443	0.000305176	
2.92206	0.179138	0.000610352	
2.92236	0.179138	0.000152588	
2.92236	0.178833	0	
2.92206	0.178528	0.000915527	
2.92206	0.179443	0.000457764	
2.92267	0.178833	0.000305176	
2.92511	0.178833	0.000457764	
2.92633	0.179443	0.000457764	
2.92694	0.175781	0.000457764	
2.92664	0.174255	0.000152588	
2.92694	0.174866	0.000457764	
2.92694	0.174255	0.000457764	
2.92664	0.174255	-0.000152588	
2.92755	0.175171	0.000762939	
2.9306	0.174255	0.000457764	
2.93213	0.17395	0.000762939	
2.93152	0.17395	0.000762939	
2.93152	0.174255	0.000762939	
2.93152	0.174255	0.000610352	
2.93213	0.171204	0.000152588	
2.93152	0.169678	0.000762939	
2.93182	0.168762	0.000305176	
2.93488	0.169067	-0.000305176	
2.93671	0.169067	0.000610352	
2.93701	0.169373	0.000610352	
2.93732	0.169678	0.000305176	
2.9361	0.169067	0.000305176	
2.93701	0.168762	0.000457764	
2.93762	0.169983	0.000457764	
2.93762	0.169373	0.000457764	
2.94037	0.166321	0.000762939	
2.94128	0.16449	0.000762939	
2.94159	0.16449	0.000152588	
2.9425	0.163269	0.000915527	
2.94189	0.163574	0.000457764	
2.9422	0.164185	0	
2.94189	0.16449	0.000152588	
2.9422	0.16449	0.000305176	
2.94525	0.16449	0.000457764	
2.94708	0.164795	0.000152588	
2.94678	0.16449	0.000457764	
2.94617	0.161133	0.000610352	
2.94678	0.160217	0.000305176	
2.94678	0.159912	0.00106812	
2.94647	0.159302	0.000762939	
2.94708	0.159302	0.000457764	
2.948	0.159607	0.000762939	
2.95013	0.159302	0.000457764	
2.95166	0.159302	0.000152588	
2.95166	0.158997	-0.000152588	
2.95135	0.159607	0.000305176	
2.95197	0.159302	0.000610352	
2.95197	0.15625	0.000152588	
2.95135	0.155334	0.000915527	
2.95166	0.155029	0.000610352	
2.95166	0.154724	0.000457764	
2.95532	0.154724	0.000457764	
2.95685	0.154419	0.000305176	
2.95654	0.154419	0.000457764	
2.95685	0.154724	0.000305176	
2.95624	0.154724	0.000915527	
2.95624	0.154419	0.000457764	
2.95685	0.154724	-0.000305176	
2.95624	0.151367	0.000762939	
2.95776	0.149841	0.000457764	
2.95959	0.149841	0.000457764	
2.96143	0.149841	0.000305176	
2.96204	0.149841	0.000152588	
2.96173	0.149536	0.000457764	
2.96112	0.149841	0.000610352	
2.96173	0.149841	0.0012207	
2.96112	0.150146	0.000305176	
2.96112	0.149536	0.000152588	
2.96204	0.149841	0.00106812	
2.96539	0.149536	0.000610352	
2.9657	0.147095	0.000305176	
2.96661	0.145569	0	
2.96692	0.145264	0.000152588	
2.96692	0.144348	0.000305176	
2.96631	0.144958	0.000305176	
2.96692	0.144958	0.000457764	
2.96661	0.144958	0.000152588	
2.96631	0.144958	0.000152588	
2.96692	0.145569	0.000762939	
2.96997	0.145264	0.000762939	
2.9715	0.145264	0.000457764	
2.97089	0.144958	0.000457764	
2.97211	0.141602	0.000457764	
2.97089	0.140381	0.000457764	
2.9715	0.140076	0	
2.9718	0.139771	0.000305176	
2.9715	0.139771	0.000457764	
2.97058	0.139771	-0.000152588	
2.9718	0.140381	0.000915527	
2.97516	0.139771	0.000457764	
2.97607	0.139771	0.000305176	
2.97668	0.140076	0.000457764	
2.97607	0.140381	0.000610352	
2.97638	0.139465	0.000457764	
2.97638	0.139465	0.000305176	
2.97638	0.136414	0.000762939	
2.97638	0.135498	0.000762939	
2.97638	0.134888	-0.000152588	
2.97638	0.135193	0.000915527	
2.97699	0.134888	0.000305176	
2.97974	0.134888	0.000305176	
2.98096	0.134583	0.000152588	
2.98096	0.135498	0.000610352	
2.98065	0.135193	0.000305176	
2.98126	0.135193	0.000762939	
2.98157	0.135498	0.000457764	
2.98157	0.135193	0.000610352	
2.98157	0.134888	0	
2.98126	0.135193	0.0012207	
2.98035	0.132446	0.000457764	
2.98187	0.13031	0.000305176	
2.98492	0.130005	0.000305176	
2.98553	0.130005	0.000457764	
2.98584	0.130005	0.000305176	
2.98584	0.130005	0	
2.98615	0.13031	0.000457764	
2.98553	0.130005	0.000610352	
2.98584	0.130005	0.000457764	
2.98523	0.13031	0.00106812	
2.98584	0.13031	0.000762939	
2.98615	0.13031	0.000457764	
2.98615	0.130005	0.000457764	
2.98645	0.13031	0.000915527	
2.99011	0.130005	0.000152588	
2.99072	0.126648	0	
2.99133	0.125732	0.000457764	
2.99133	0.125732	0.000152588	
2.99072	0.125122	-0.000152588	
2.99072	0.125427	0.000762939	
2.99133	0.125427	0.000457764	
2.99133	0.125427	0.000305176	
2.99164	0.125122	0.000457764	
2.99072	0.125427	0.000762939	
2.99103	0.125427	0.000305176	
2.99103	0.125427	0	
2.99194	0.124817	0.000610352	
2.99438	0.125122	0.000610352	
2.9953	0.124817	0	
2.99622	0.125732	0.000762939	
2.99591	0.125427	0.000457764	
2.99652	0.124817	0.000457764	
2.99591	0.12207	0.000152588	
2.99591	0.121155	0.000305176	
2.99683	0.120544	0.000305176	
2.99591	0.120239	0.000762939	
2.99561	0.120239	0.000915527	
2.99591	0.120239	0.000610352	
2.99561	0.120239	0.000152588	
2.99652	0.12085	0.000915527	
2.99896	0.120239	0.000457764	
3.00049	0.120239	0.000152588	
3.00049	0.120239	0.000152588	
3.00049	0.120239	0.000457764	
3.00079	0.119629	0.000305176	
3.00079	0.120239	0.000152588	
3.0011	0.12085	0.000610352	
3.00049	0.12085	0.000457764	
3.00079	0.120544	0.000457764	
3.0011	0.12085	0.0012207	
3.00049	0.120544	0.000762939	
3.0011	0.12085	0.000457764	
3.00171	0.117798	0.000610352	
3.0014	0.115356	0.000457764	
3.0011	0.115662	0.000457764	
3.00446	0.115662	-0.000152588	
3.00598	0.115662	0.000152588	
3.00598	0.115051	0.000457764	
3.00568	0.115356	-0.000152588	
3.00598	0.115356	0.000915527	
3.00598	0.115051	0.000305176	
3.00598	0.115662	0.000762939	
3.00537	0.115662	0.000305176	
3.00629	0.115967	0.000610352	
3.00568	0.115662	0.000152588	
3.00629	0.115662	0.000305176	
3.00568	0.115967	0.000762939	
3.00537	0.115051	0.000610352	
3.00568	0.115356	-0.000457764	
3.00598	0.114746	0.000762939	
3.00629	0.115051	0.000305176	
3.00964	0.115356	0.000457764	
3.01056	0.114746	0.000305176	
3.01025	0.114746	0.000457764	
3.01025	0.114441	0.000457764	
3.01086	0.11261	0.000152588	
3.01056	0.111084	0.000915527	
3.01025	0.110168	0.000457764	
3.00995	0.110474	0.000305176	
3.01086	0.110474	0.00106812	
3.01086	0.110779	0.000610352	
3.01025	0.109863	0.000457764	
3.00995	0.110168	0.000152588	
3.01086	0.110168	0.000152588	
3.01025	0.110474	0.000457764	
3.01086	0.111084	0.000152588	
3.01025	0.110779	0.000610352	
3.01117	0.110474	0.000610352	
3.01453	0.110168	0.000152588	
3.01514	0.110779	0.00106812	
3.01575	0.110474	0.000610352	
3.01544	0.110474	0.000457764	
3.01544	0.110474	0.000305176	
3.01605	0.110168	0.000610352	
3.01544	0.110779	0.000762939	
3.01575	0.110474	-0.000152588	
3.01575	0.110474	0.000305176	
3.01575	0.110779	0.000305176	
3.01544	0.110779	0	
3.01575	0.110779	0.000915527	
3.01544	0.107422	0.000305176	
3.01575	0.106201	0.000457764	
3.01544	0.105896	0.000610352	
3.01544	0.105896	0.000762939	
3.01605	0.105896	0.000305176	
3.01575	0.105896	0.000305176	
3.01544	0.105591	0.000762939	
3.01971	0.105591	0	
3.02032	0.105896	-0.000152588	
3.02094	0.105591	0.000915527	
3.02124	0.105591	0.000457764	
3.02094	0.105286	0.000610352	
3.02155	0.105591	0.000457764	
3.02032	0.105286	0.000305176	
3.02124	0.105286	0.000152588	
3.02063	0.105896	0.000457764	
3.02032	0.105896	0.000915527	
3.02032	0.105896	0.000610352	
3.02032	0.105286	0.000152588	
3.02094	0.105591	0.00106812	
3.02094	0.105896	0.000457764	
3.02063	0.105591	0.000305176	
3.02032	0.106201	0.000305176	
3.02063	0.105591	0	
3.02124	0.102539	0.000305176	
3.02032	0.101318	0.000152588	
3.02094	0.101013	0.000457764	
3.02094	0.100708	0.000457764	
3.02094	0.100708	0.000152588	
3.02368	0.101318	0.0012207	
3.02551	0.101318	0.000610352	
3.02551	0.100403	0.000457764	
3.02582	0.100708	0.000457764	
3.02521	0.100708	0.000610352	
3.02582	0.101013	0.000610352	
3.02582	0.100403	-0.000152588	
3.02551	0.100403	0.000457764	
3.02521	0.101013	0.000305176	
3.02612	0.101013	0	
3.02551	0.100403	0	
3.02612	0.100403	0.000305176	
3.02521	0.100403	0.000610352	
3.02521	0.101318	0.000610352	
3.02551	0.101013	0.000457764	
3.0249	0.100708	0.000457764	
3.02582	0.100708	0.000305176	
3.02551	0.100403	0.000457764	
3.02551	0.100403	0	
3.02582	0.101013	0.000152588	
3.0249	0.100708	0.000152588	
3.0249	0.100708	0.000457764	
3.02582	0.100708	0.000457764	
3.02521	0.100403	0.000305176	
3.02551	0.100403	0.000457764	
3.02521	0.100403	0.000152588	
3.02643	0.100403	0.000305176	
3.02917	0.100403	0.000457764	
3.03009	0.100708	0.000305176	
3.02979	0.101013	0.000305176	
3.03131	0.100403	0.000762939	
3.0304	0.100403	0.000762939	
3.0307	0.0997925	0.000610352	
3.0304	0.100403	0.000152588	
3.0307	0.0997925	0	
3.0307	0.100403	0.000610352	
3.03131	0.100708	0.000305176	
3.0307	0.101013	0.000457764	
3.0307	0.100098	0.000457764	
3.0304	0.100708	0.000762939	
3.03101	0.101013	0.000457764	
3.0304	0.100403	0.000457764	
3.0304	0.100708	0.000915527	
3.0307	0.101013	0.000610352	
3.0304	0.100708	0.000762939	
3.0307	0.101013	0.000152588	
3.0307	0.101013	-0.000152588	
3.03009	0.100708	0.000915527	
3.0304	0.100403	0.000305176	
3.0304	0.100098	0.000305176	
3.0304	0.100403	0.000152588	
3.03009	0.100403	0.000610352	
3.0304	0.101318	0.000457764	
3.03009	0.100403	0.000457764	
3.0307	0.101013	0.000915527	
3.03101	0.101318	0.000305176	
3.02979	0.100708	0.000305176	
3.0304	0.100708	0.000610352	
3.0304	0.0997925	0.000457764	
3.03101	0.100708	0.000305176	
3.0307	0.101318	0.000305176	
3.0307	0.100708	0.000457764	
3.0307	0.100403	0.000305176	
3.03101	0.100403	0.000457764	
3.03375	0.100098	0.000457764	
3.03528	0.100098	0.000762939	
3.03528	0.100708	0.000457764	
3.03528	0.100708	0.000762939	
3.03528	0.101318	0.000457764	
3.03558	0.100708	0.000305176	
3.03497	0.101318	0.000305176	
3.03558	0.100403	0.000305176	
3.03558	0.101013	0.000305176	
3.03497	0.100098	0.000152588	
3.03619	0.100098	0.000610352	
3.03589	0.100403	0.000457764	
3.03528	0.100708	0.000305176	
3.03528	0.100708	0.000457764	
3.03589	0.100708	0.000762939	
3.03528	0.101013	0.000305176	
3.03589	0.100403	0.000610352	
3.03467	0.101013	0.000457764	
3.03589	0.100403	0.000305176	
3.03558	0.101318	0.000610352	
3.03589	0.100708	0.000610352	
3.03558	0.101318	0.000305176	
3.03589	0.100708	0	
3.03528	0.100708	0.000457764	
3.03558	0.100403	0.000305176	
3.03558	0.101013	0.000457764	
3.03528	0.101013	0.000305176	
3.03528	0.100403	0.000610352	
3.03558	0.101013	0.000457764	
3.03528	0.101013	0.000610352	
3.03528	0.101013	0.000610352	
3.03619	0.101013	0.000610352	
3.03528	0.100708	0	
3.03589	0.101013	0.000762939	
3.03528	0.0997925	0.000762939	
3.03558	0.0817871	0.000305176	
3.03528	0.0738525	0.000152588	
3.03497	0.0717163	0.000457764	
3.03497	0.0717163	0.000610352	
3.03528	0.0723267	0.000457764	
3.03558	0.0720215	0.000305176	
3.03558	0.0720215	0.000457764	
3.03528	0.0726318	0.000457764	
3.03558	0.0717163	0.000457764	
3.03497	0.0723267	0.00106812	
3.03558	0.0723267	0.000610352	
3.03528	0.0717163	0.000610352	
3.03589	0.0720215	0.000762939	
3.03497	0.0720215	0.000305176	
3.03528	0.0686646	0.000305176	
3.03528	0.067749	0	
3.03528	0.0674438	0.000152588	
3.03589	0.0674438	0.000305176	
3.03589	0.0668335	0	
3.03589	0.0671387	0.000915527	
3.03497	0.0668335	0.000915527	
3.03528	0.0668335	0.000305176	
3.03528	0.0674438	0.000457764	
3.03558	0.0668335	0.000457764	
3.03558	0.0668335	0.000610352	
3.03589	0.0671387	0.000457764	
3.03619	0.0665283	0.000305176	
3.03528	0.0668335	-0.000305176	
3.03467	0.0640869	0	
3.03558	0.0619507	0.00106812	
3.03497	0.0622559	0.000457764	
3.03558	0.0619507	0.000457764	
3.03528	0.0622559	0.000152588	
3.03497	0.0619507	0.000610352	
3.03497	0.0622559	0.000305176	
3.03589	0.0619507	0.000457764	
3.03589	0.0619507	0.000457764	
3.03558	0.0613403	0.000152588	
3.03619	0.0616455	0.000152588	
3.03558	0.0622559	0.00106812	
3.03528	0.0622559	-0.000152588	
3.03558	0.0588989	0.000305176	
3.03558	0.057373	0.000762939	
3.03528	0.0570679	0.000457764	
3.03528	0.0576782	0.000305176	
3.03497	0.0570679	0.000152588	
3.03589	0.0567627	0.000305176	
3.03528	0.057373	0.000305176	
3.03497	0.0570679	0.000610352	
3.03558	0.0570679	0.000915527	
3.03558	0.057373	0.000457764	
3.03558	0.0579834	0.000457764	
3.03528	0.0579834	0.000305176	
3.03558	0.057373	0.000305176	
3.03528	0.0540161	0.000305176	
3.03589	0.0527954	0.000610352	
3.03497	0.0521851	0.000610352	
3.03558	0.0521851	0.000305176	
3.03467	0.0521851	0.000152588	
3.03558	0.0531006	0.000915527	
3.03528	0.0524902	0.000457764	
3.03528	0.0527954	0.000457764	
3.03528	0.0527954	0.000610352	
3.03558	0.0524902	0.000762939	
3.03528	0.0527954	0.000152588	
3.03528	0.0521851	0.000457764	
3.03528	0.0521851	0.000457764	
3.03528	0.0491333	-0.000305176	
3.03558	0.0469971	-0.000152588	
3.03558	0.0476074	0.000762939	
3.03558	0.0476074	0.000305176	
3.03619	0.0476074	0.000152588	
3.03558	0.0482178	0.000457764	
3.03528	0.0473022	0.000457764	
3.03558	0.0466919	0.000915527	
3.03558	0.0473022	0.000610352	
3.03528	0.0466919	0.000152588	
3.03589	0.0469971	0.000305176	
3.03589	0.0476074	0.000152588	
3.03497	0.0473022	0.000762939	
3.03497	0.0439453	0.000457764	
3.03558	0.0427246	0.000305176	
3.03497	0.0427246	0.000457764	
3.03497	0.0427246	0.000457764	
3.03619	0.0424194	0.000305176	
3.03619	0.0427246	0.000305176	
3.03497	0.0427246	0.000305176	
3.03528	0.0424194	0.000457764	
3.03558	0.0418091	0.000457764	
3.03589	0.0427246	0.000915527	
3.03497	0.0427246	0.000457764	
3.03558	0.0424194	0.000305176	
3.03497	0.0427246	0.000457764	
3.0365	0.0424194	0.000305176	
3.03589	0.039978	0.000152588	
3.03558	0.038147	0.000305176	
3.03528	0.0375366	0.000457764	
3.03558	0.0375366	0	
3.03558	0.0369263	0	
3.03558	0.0369263	0.00106812	
3.03558	0.038147	0.000610352	
3.03528	0.0375366	0.000610352	
3.03528	0.0378418	0.000305176	
3.03558	0.0378418	0.000610352	
3.03528	0.0375366	0.000610352	
3.03589	0.0378418	0.000457764	
3.03619	0.0375366	0.000457764	
3.03528	0.0369263	-0.000305176	
3.03528	0.03479	-0.000152588	
3.03558	0.0326538	0.000762939	
3.03558	0.0326538	0.000152588	
3.03436	0.0323486	0.000457764	
3.03223	0.032959	0.000305176	
3.03101	0.032959	0.000457764	
3.03101	0.0320435	0.000762939	
3.0307	0.032959	0.000457764	
3.0304	0.0323486	0.000305176	
3.03101	0.0323486	0.000457764	
3.0304	0.0323486	0.000305176	
3.0304	0.0320435	0.000915527	
3.0304	0.0326538	0.000152588	
3.0307	0.0326538	0.000305176	
3.0304	0.0292969	0.000457764	
3.0304	0.027771	0.000457764	
3.03101	0.0271606	0.000305176	
3.0307	0.0280762	0.000152588	
3.03009	0.0274658	0.000457764	
3.0307	0.0274658	0.000457764	
3.0304	0.0274658	0.000610352	
3.0307	0.0280762	0.000610352	
3.0307	0.0280762	0.000457764	
3.0304	0.027771	0.000305176	
3.02979	0.0280762	0.000915527	
3.0307	0.027771	0.000457764	
3.0307	0.027771	0.000305176	
3.0307	0.0274658	0.000305176	
3.0307	0.0274658	0.000610352	
3.0304	0.0274658	0.000305176	
3.03101	0.0250244	-0.000152588	
3.03101	0.0228882	0.0012207	
3.03101	0.0234985	0.000305176	
3.0307	0.0231934	0.000762939	
3.0307	0.0228882	0.000152588	
3.03101	0.0228882	0.000762939	
3.03101	0.022583	0.000610352	
3.02979	0.022583	0.000457764	
3.0304	0.022583	0.000457764	
3.0304	0.0228882	0	
3.0307	0.022583	0.000152588	
3.0304	0.0231934	0.000762939	
3.0307	0.0228882	0.000457764	
3.02948	0.022583	0.000152588	
3.02734	0.0228882	0.000457764	
3.02582	0.0231934	0.000457764	
3.02582	0.0204468	0.000915527	
3.02521	0.0180054	0.000610352	
3.02582	0.0183105	0.000610352	
3.02612	0.0183105	0.000457764	
3.02551	0.0180054	0.000457764	
3.02551	0.0180054	0.000457764	
3.02521	0.0177002	0.000305176	
3.02551	0.0177002	0.000915527	
3.0249	0.0180054	0.000457764	
3.0249	0.0180054	0.000305176	
3.02551	0.017395	0.000152588	
3.02551	0.0183105	0.000457764	
3.02582	0.0180054	0.000457764	
3.02521	0.0183105	0.000457764	
3.02521	0.0183105	0.000762939	
3.02551	0.0183105	0.000305176	
3.02551	0.0177002	0	
3.02582	0.0177002	0.0012207	
3.02551	0.017395	0.000762939	
3.02551	0.0143433	0.000610352	
3.02551	0.0131226	0.000305176	
3.02521	0.0131226	0.000457764	
3.02551	0.0128174	0.000457764	
3.02521	0.0128174	0.000152588	
3.02521	0.0128174	0.000457764	
3.02521	0.0131226	0.000610352	
3.02521	0.0128174	0.000152588	
3.0249	0.0125122	0.00106812	
3.02216	0.0125122	0.000305176	
3.02124	0.0131226	0.000152588	
3.02094	0.0128174	0.000457764	
3.02063	0.0128174	0.000610352	
3.02094	0.0131226	0.000152588	
3.02124	0.0128174	0	
3.02032	0.0134277	0.000457764	
3.02063	0.0128174	0.000610352	
3.02032	0.0128174	-0.000152588	
3.02032	0.0131226	0.000762939	
3.02002	0.00976563	0.000457764	
3.02032	0.00915527	0.000762939	
3.02032	0.00823975	0.000610352	
3.02002	0.00793457	0.000610352	
3.02063	0.00823975	0.000610352	
3.02124	0.00823975	0.000305176	
3.02063	0.00762939	0.000610352	
3.02002	0.00793457	0.000305176	
3.01971	0.00762939	-0.000152588	
3.02063	0.00854492	0.000610352	
3.02032	0.00793457	0.000610352	
3.02063	0.00762939	0.000152588	
3.02032	0.00823975	0.000305176	
3.02002	0.00793457	0.000305176	
3.01727	0.00793457	0.000457764	
3.01605	0.00793457	0.000305176	
3.01544	0.00823975	0.00106812	
3.01636	0.00823975	0.000762939	
3.01605	0.00793457	-0.000152588	
3.01514	0.00762939	0.000915527	
3.01575	0.00457764	0.000305176	
3.01575	0.00335693	0.000762939	
3.01575	0.00274658	0.000152588	
3.01544	0.00305176	0.000457764	
3.01575	0.00274658	0.000457764	
3.01544	0.00305176	0.000305176	
3.01636	0.00366211	0.000610352	
3.01575	0.00305176	0.000610352	
3.01483	0.00244141	0.000152588	
3.01575	0.00305176	0.0012207	
3.01605	0.00244141	0.000305176	
3.01636	0.00335693	0.000152588	
3.01575	0.00335693	0.000457764	
3.01575	0.00305176	0.000457764	
3.01544	0.00305176	0.000610352	
3.01514	0.00305176	0	
3.01239	0.00335693	0.000152588	
3.01056	0.00244141	0.000457764	
3.01056	0.00305176	0	
3.01056	0.00335693	0.000762939	
3.01056	0.00335693	0.000762939	
3.01117	0.00305176	0.000152588	
3.01147	0.00213623	0.000915527	
3.01056	-0.000610352	0.000610352	
3.01056	-0.000915527	0.000457764	
3.01056	-0.0012207	0.000152588	
3.01056	-0.000915527	0.000762939	
3.00995	-0.0012207	0.000610352	
3.01056	-0.00152588	0	
3.01056	-0.00213623	0.000915527	
3.01117	-0.00152588	0.000305176	
3.01086	-0.00152588	0.000305176	
3.01086	-0.0012207	0	
3.01025	-0.00183105	0.000305176	
3.01056	-0.0012207	0.000457764	
3.00964	-0.00213623	0.000305176	
3.00781	-0.0012207	0.0012207	
3.00598	-0.0012207	0.000610352	
3.00568	-0.00183105	-0.000152588	
3.00598	-0.00183105	0.00106812	
3.00598	-0.000915527	0.000610352	
3.00568	-0.00213623	0.000305176	
3.00598	-0.00183105	0.000457764	
3.00568	-0.000915527	0.000305176	
3.00598	-0.00183105	0.000305176	
3.00568	-0.00152588	0.000152588	
3.00568	-0.0012207	0.000610352	
3.00629	-0.000915527	0.000762939	
3.00568	-0.00152588	0.000152588	
3.00507	-0.00457764	0.00106812	
3.00659	-0.00610352	0.000152588	
3.00598	-0.00640869	0.000457764	
3.00598	-0.00640869	0.000457764	
3.00537	-0.00640869	0.000610352	
3.00507	-0.00640869	0.000762939	
3.00232	-0.00671387	0	
3.00049	-0.00610352	0.000457764	
3.0011	-0.00579834	0	
3.00049	-0.00640869	0	
3.00049	-0.00610352	0.00106812	
3.00049	-0.00640869	0.000762939	
3.00079	-0.00579834	0.000457764	
3.0011	-0.00640869	0.000305176	
3.00079	-0.00671387	0.000305176	
3.0014	-0.00640869	0.000457764	
3.0014	-0.00610352	0.000305176	
3.00079	-0.00610352	0.000762939	
3.0011	-0.00671387	0.000610352	
3.00079	-0.00671387	-0.000152588	
3.00049	-0.00549316	0.000610352	
3.00171	-0.00610352	0.000305176	
3.00049	-0.00640869	0.000610352	
2.99805	-0.00610352	0.000610352	
2.99591	-0.00610352	0.000305176	
2.99591	-0.00610352	0.000305176	
2.99561	-0.00610352	0.000457764	
2.99591	-0.00579834	0.00106812	
2.99591	-0.00640869	0.000305176	
2.99591	-0.00610352	-0.000152588	
2.99591	-0.00610352	0.000915527	
2.99622	-0.0088501	0.000915527	
2.99561	-0.010376	0.000457764	
2.99683	-0.0115967	0.000305176	
2.99561	-0.0109863	0.000305176	
2.99622	-0.0112915	0.000152588	
2.9953	-0.0109863	0.000152588	
2.99683	-0.0112915	0.000610352	
2.99591	-0.0109863	0.000305176	
2.9953	-0.0119019	0.000305176	
2.99286	-0.0112915	0.000915527	
2.99164	-0.0119019	0.000305176	
2.99072	-0.0109863	0.000610352	
2.99103	-0.0109863	0.000762939	
2.99164	-0.0112915	0.000457764	
2.99133	-0.0119019	0.000457764	
2.99042	-0.0112915	0	
2.99103	-0.0112915	0.000610352	
2.99103	-0.0112915	0.000610352	
2.99103	-0.0106812	-0.000152588	
2.99164	-0.0109863	0.000915527	
2.99103	-0.0106812	0.000305176	
2.99133	-0.0109863	0.000610352	
2.99164	-0.0106812	0.000610352	
2.99103	-0.0106812	0.000457764	
2.99103	-0.010376	0.000915527	
2.98706	-0.0109863	-0.000152588	
2.98645	-0.0115967	0.000610352	
2.98645	-0.0112915	0.000610352	
2.98615	-0.0112915	0	
2.98615	-0.010376	0.000762939	
2.98676	-0.010376	0.000305176	
2.98615	-0.0112915	0.000610352	
2.98615	-0.0112915	0.000610352	
2.98645	-0.0109863	0.000457764	
2.98615	-0.0109863	0.000305176	
2.98615	-0.0115967	0.000305176	
2.98615	-0.0109863	0.000762939	
2.98584	-0.0109863	0.000305176	
2.98584	-0.0112915	0	
2.98553	-0.0115967	0.000457764	
2.98553	-0.0119019	0.000762939	
2.98523	-0.0112915	0.000457764	
2.98218	-0.0115967	0	
2.98157	-0.0115967	0	
2.98065	-0.0112915	0.000457764	
2.98187	-0.0112915	0.000305176	
2.98126	-0.0112915	0.000305176	
2.98126	-0.0106812	0.000762939	
2.98065	-0.012207	0.000305176	
2.97729	-0.0112915	0.000610352	
2.97607	-0.0119019	0.000457764	
2.97577	-0.0109863	0.000915527	
2.97607	-0.0109863	0.000610352	
2.97638	-0.0112915	0.000457764	
2.97607	-0.0109863	0.000457764	
2.97577	-0.0119019	0.000152588	
2.97638	-0.0109863	0.000152588	
2.97607	-0.0119019	0.000457764	
2.97577	-0.0106812	0.000305176	
2.97668	-0.0119019	0.000457764	
2.97668	-0.0106812	0	
2.97577	-0.0112915	0.0012207	
2.97302	-0.0106812	0.000610352	
2.9718	-0.0115967	0.000610352	
2.9715	-0.0109863	0.000305176	
2.9718	-0.0112915	0.000457764	
2.97119	-0.0112915	0.000610352	
2.97119	-0.0119019	0.000457764	
2.9715	-0.0109863	0.000305176	
2.97119	-0.0109863	0.000152588	
2.97089	-0.0112915	0.000305176	
2.97089	-0.0112915	0.000457764	
2.9715	-0.0106812	0.000610352	
2.9715	-0.0115967	0.000457764	
2.97058	-0.0109863	0.000305176	
2.96844	-0.0112915	0.000610352	
2.96692	-0.0109863	0.000610352	
2.966	-0.012207	0.000457764	
2.96692	-0.0109863	0.000305176	
2.96692	-0.0106812	0.000457764	
2.9657	-0.0112915	0.000152588	
2.96661	-0.0115967	0.000457764	
2.966	-0.0109863	0.000457764	
2.96661	-0.0112915	0.000305176	
2.96661	-0.0112915	0.000305176	
2.96631	-0.0112915	0.000305176	
2.96661	-0.0112915	0.000610352	
2.966	-0.0115967	0.000305176	
2.96295	-0.0109863	0.000610352	
2.96234	-0.0109863	0.000305176	
2.96143	-0.0109863	0.000305176	
2.96143	-0.0112915	0.000610352	
2.96173	-0.0112915	0.000457764	
2.96143	-0.0119019	0.000457764	
2.96143	-0.0112915	0.000305176	
2.96173	-0.0112915	0.000152588	
2.96173	-0.0112915	0.000152588	
2.96143	-0.0109863	0.000457764	
2.96112	-0.0112915	0.000305176	
2.96082	-0.0109863	0.000457764	
2.95837	-0.0112915	0.000305176	
2.95685	-0.0115967	0.000152588	
2.95715	-0.012207	0.000610352	
2.95624	-0.0106812	0.000762939	
2.95715	-0.0115967	0.000305176	
2.95685	-0.0109863	0.000610352	
2.95715	-0.0112915	0.000762939	
2.95654	-0.0119019	0.000457764	
2.95685	-0.0115967	0.000152588	
2.95624	-0.0112915	0.000305176	
2.95654	-0.0106812	0.000305176	
2.95654	-0.0112915	0.000152588	
2.95563	-0.0109863	0.000762939	
2.95349	-0.0112915	0.000457764	
2.95258	-0.0109863	0.000610352	
2.95197	-0.0115967	0.000457764	
2.95166	-0.0115967	0.000610352	
2.95197	-0.0112915	0.000762939	
2.95227	-0.0109863	0.000457764	
2.95197	-0.0112915	0.000457764	
2.95197	-0.0115967	0.000457764	
2.95166	-0.0115967	-0.000152588	
2.95135	-0.0112915	0.000305176	
2.95135	-0.0112915	0.000305176	
2.9483	-0.0119019	0.000610352	
2.94647	-0.0115967	0.000610352	
2.94739	-0.0119019	0.000152588	
2.94678	-0.0115967	0.000457764	
2.94647	-0.0119019	0.000915527	
2.94769	-0.0109863	0.000762939	
2.94678	-0.0112915	0.000457764	
2.94708	-0.0112915	0.000305176	
2.94647	-0.0112915	0.000762939	
2.94617	-0.0109863	0.000457764	
2.94342	-0.0112915	0.000305176	
2.94281	-0.0119019	0.000305176	
2.9422	-0.0119019	0.000152588	
2.9425	-0.0115967	0.000457764	
2.94189	-0.0112915	0.000305176	
2.94189	-0.0115967	0.000457764	
2.94159	-0.0115967	0.000305176	
2.94189	-0.0112915	0.000152588	
2.94159	-0.0112915	0.000152588	
2.94159	-0.0119019	0.000610352	
2.94159	-0.0109863	0.000457764	
2.93823	-0.0115967	0.000457764	
2.93701	-0.0112915	0.000152588	
2.93701	-0.0115967	0.000610352	
2.93701	-0.0119019	0.000305176	
2.93732	-0.0112915	0.000610352	
2.93671	-0.0112915	0.000457764	
2.9364	-0.0119019	0.000152588	
2.93671	-0.0109863	0.000610352	
2.93701	-0.0115967	0.000305176	
2.93671	-0.0119019	0.000610352	
2.93365	-0.0112915	0.000305176	
2.93213	-0.0115967	0.000762939	
2.93243	-0.0112915	0.000457764	
2.93213	-0.0106812	0.000305176	
2.93182	-0.0119019	0.000762939	
2.93182	-0.0115967	0.000305176	
2.93213	-0.0115967	0	
2.93152	-0.0115967	0.000457764	
2.93182	-0.0106812	0.000305176	
2.93152	-0.0119019	0.000305176	
2.92877	-0.0115967	0.000457764	
2.92755	-0.0109863	0.000305176	
2.92633	-0.0109863	0.000457764	
2.92694	-0.0106812	0.000610352	
2.92633	-0.0112915	0.000457764	
2.92725	-0.0112915	0.000152588	
2.92725	-0.012207	0	
2.92725	-0.0109863	0.000915527	
2.92572	-0.0115967	0.000305176	
2.92358	-0.0112915	0.000457764	
2.92236	-0.0109863	0.000152588	
2.92206	-0.0115967	0.000305176	
2.92175	-0.0112915	0.000457764	
2.92206	-0.0109863	0.000457764	
2.92206	-0.0112915	0.000152588	
2.92206	-0.0119019	0	
2.92206	-0.0115967	0.000457764	
2.92084	-0.0112915	0.000915527	
2.91931	-0.0106812	0.000610352	
2.91779	-0.0106812	0.000457764	
2.91748	-0.0109863	0.000610352	
2.91718	-0.0112915	0.000610352	
2.91687	-0.0112915	0.000152588	
2.91687	-0.0119019	0.000610352	
2.91687	-0.0109863	0	
2.91748	-0.0109863	0.000305176	
2.91687	-0.0112915	0.000152588	
2.91321	-0.0112915	0.000305176	
2.91229	-0.0109863	0.000305176	
2.91229	-0.0112915	0.000457764	
2.91168	-0.010376	0.000457764	
2.91199	-0.0112915	0.000762939	
2.91229	-0.0106812	0.000762939	
2.91229	-0.012207	0.000762939	
2.91199	-0.0112915	0.000457764	
2.91077	-0.0119019	0.000610352	
2.90863	-0.0109863	0.000152588	
2.90771	-0.0109863	0.000305176	
2.90741	-0.0109863	0.000305176	
2.9071	-0.0109863	0.000305176	
2.90802	-0.0115967	0.000610352	
2.90771	-0.0109863	0.000152588	
2.90741	-0.0112915	0.000152588	
2.90649	-0.0106812	0.000457764	
2.90375	-0.0112915	0.000305176	
2.90253	-0.0112915	0.000457764	
2.90222	-0.0119019	0.000305176	
2.90253	-0.0112915	0.000610352	
2.90222	-0.0112915	0.000305176	
2.90222	-0.0112915	0.000457764	
2.90283	-0.012207	0	
2.90192	-0.0115967	-0.000152588	
2.90131	-0.0112915	0.000457764	
2.89886	-0.0112915	0.000457764	
2.89795	-0.0119019	0.000457764	
2.89734	-0.0119019	0.000457764	
2.89734	-0.0115967	0.000457764	
2.89703	-0.0115967	0.000915527	
2.89734	-0.0106812	0.00106812	
2.89734	-0.0112915	0.000457764	
2.89642	-0.0109863	0.000457764	
2.89398	-0.0109863	0.000610352	
2.89307	-0.0112915	0.000305176	
2.89246	-0.0109863	0.000457764	
2.89185	-0.0112915	0.000305176	
2.89215	-0.0112915	0.000152588	
2.89215	-0.0112915	0.000305176	
2.89246	-0.0109863	0.000457764	
2.89215	-0.0109863	0.000305176	
2.88879	-0.0115967	0.000305176	
2.88818	-0.0106812	0.000610352	
2.88696	-0.0115967	0.000762939	
2.88788	-0.0109863	0.000305176	
2.88757	-0.0106812	0.000457764	
2.88605	-0.0115967	0.000457764	
2.88757	-0.0109863	0.000457764	
2.88757	-0.0109863	0.000152588	
2.88361	-0.0112915	0.000305176	
2.883	-0.0119019	0.000152588	
2.88147	-0.0112915	0.000305176	
2.88239	-0.0109863	0.000305176	
2.88208	-0.0119019	0.000305176	
2.88208	-0.0112915	0.000305176	
2.88208	-0.0106812	0.000610352	
2.88177	-0.0115967	0.000610352	
2.87903	-0.0119019	0.000305176	
2.8772	-0.0106812	-0.000152588	
2.8772	-0.0115967	0.000915527	
2.8772	-0.0115967	0.000610352	
2.8775	-0.0106812	0.000762939	
2.8775	-0.0119019	0.000305176	
2.87781	-0.0112915	0	
2.8772	-0.0112915	0.000305176	
2.87415	-0.0112915	0.000610352	
2.87262	-0.0115967	0.000610352	
2.87292	-0.0115967	0.000457764	
2.87262	-0.0112915	0.000152588	
2.87292	-0.0115967	0.000915527	
2.87262	-0.0119019	0.000762939	
2.87292	-0.0109863	0.000305176	
2.87231	-0.0109863	0.000305176	
2.86957	-0.0115967	0.000457764	
2.86804	-0.0112915	0.000305176	
2.86743	-0.0112915	0.000305176	
2.86774	-0.0115967	-0.000152588	
2.86743	-0.0119019	0.000305176	
2.86713	-0.0115967	0	
2.86804	-0.0115967	0.000610352	
2.86682	-0.0109863	0.000305176	
2.86469	-0.0109863	0.000457764	
2.86285	-0.0112915	0.000610352	
2.86285	-0.0115967	0.000457764	
2.86224	-0.0112915	0.000610352	
2.86255	-0.0112915	0.000762939	
2.86285	-0.0106812	0.000610352	
2.86255	-0.0112915	0.000305176	
2.85889	-0.0112915	0.000305176	
2.85767	-0.0112915	0.000457764	
2.85797	-0.0109863	0.000305176	
2.85828	-0.0112915	0.000305176	
2.85767	-0.0112915	0.000610352	
2.85828	-0.0112915	0.000457764	
2.85767	-0.0119019	0.000610352	
2.85767	-0.0109863	0.000610352	
2.85767	-0.0119019	0.000457764	
2.85797	-0.012207	0.000762939	
2.85706	-0.0109863	0.00106812	
2.85461	-0.0112915	0.000457764	
2.85339	-0.0119019	0.000610352	
2.85278	-0.0115967	0	
2.85004	-0.0112915	0.000457764	
2.8479	-0.0106812	0.000152588	
2.84729	-0.0119019	0.000152588	
2.84821	-0.0119019	0.000457764	
2.84821	-0.0115967	0.000152588	
2.84851	-0.0112915	0	
2.8476	-0.0112915	0.000610352	
2.84729	-0.012207	0.000305176	
2.84454	-0.0109863	0.000762939	
2.84302	0.00549316	0.0012207	
2.84241	0.288086	0.000610352	
2.84332	0.446167	0.000457764	
2.84271	0.489807	0.000305176	
2.84302	0.507813	0.000152588	
2.84302	0.525208	0.000457764	
2.84271	0.544739	0.000152588	
2.83905	0.563965	0.000610352	
2.83875	0.58075	0.000305176	
2.83844	0.598755	0.000305176	
2.83844	0.617981	0.000915527	
2.83844	0.63446	0.000762939	
2.83813	0.651855	0.000915527	
2.83722	0.671692	0.000762939	
2.83478	0.688477	0.000762939	
2.83325	0.706482	0.000610352	
2.83295	0.723267	0	
2.83295	0.740662	0.000152588	
2.83325	0.757141	0.000457764	
2.83295	0.77301	-0.000152588	
2.83325	0.7901	0.000915527	
2.83295	0.805664	0.000610352	
2.83234	0.820923	0.000152588	
2.82898	0.835571	0.000610352	
2.82867	0.853271	0.000762939	
2.82776	0.869446	0.000457764	
2.82806	0.885315	0.000610352	
2.82745	0.899658	0.000305176	
2.82806	0.91095	0.000915527	
2.82745	0.923767	0.000305176	
2.82471	0.93811	0.000915527	
2.82349	0.953064	0.000152588	
2.82318	0.964966	0.000610352	
2.82288	0.977783	0.000457764	
2.82318	0.98999	0.000457764	
2.82379	1.0025	0.000457764	
2.82196	1.01379	0.000305176	
2.81952	1.02356	0.000305176	
2.8186	1.03363	0.000610352	
2.8183	1.04309	0	
2.8186	1.05316	0.00106812	
2.81799	1.06293	0.000610352	
2.8186	1.07239	0.000610352	
2.8183	1.08246	0.000305176	
2.81738	1.09192	0.000457764	
2.81464	1.09924	0.000457764	
2.81342	1.10748	0.000152588	
2.81342	1.11389	0	
2.81281	1.11877	0.000762939	
2.81372	1.12732	0	
2.81342	1.13312	0.00137329	
2.8125	1.13831	0.000915527	
2.81006	1.14319	0.000762939	
2.80853	1.14777	0.000610352	
2.80884	1.15295	0.000610352	
2.80853	1.15845	0.000152588	
2.80792	1.16028	0.000305176	
2.80853	1.16272	0.000457764	
2.80762	1.16791	0.000457764	
2.80487	1.16974	-0.000152588	
2.80334	1.16974	0.000915527	
2.80365	1.17249	0.000457764	
2.80365	1.17401	0.000305176	
2.80365	1.17432	0.000762939	
2.80334	1.17462	0.000610352	
2.80304	1.17432	0.000610352	
2.80365	1.17401	0.000305176	
2.8006	1.17493	0	
2.79938	1.17401	0.000610352	
2.79907	1.17401	0	
2.79877	1.17401	0.000610352	
2.79877	1.17493	0.000457764	
2.79877	1.17371	0.000610352	
2.79785	1.17157	0.000457764	
2.7951	1.17035	0.000305176	
2.79419	1.16638	0.000457764	
2.79327	1.16577	0.000305176	
2.79388	1.16089	0.000305176	
2.79327	1.15692	0.00106812	
2.79388	1.15448	0.000610352	
2.79327	1.15173	0.000457764	
2.79022	1.14655	0	
2.789	1.14227	0.00106812	
2.78931	1.13739	0.000610352	
2.7887	1.1319	0.000305176	
2.7887	1.12671	0.000152588	
2.78839	1.12213	0.000762939	
2.78748	1.11694	0.000305176	
2.78503	1.11206	0.000610352	
2.78351	1.10474	0.000610352	
2.78351	1.09772	0.000457764	
2.78351	1.09283	0	
2.7832	1.08521	0.000457764	
2.78381	1.08215	0.000305176	
2.78381	1.08154	0.000915527	
2.78015	1.07758	0.000610352	
2.77863	1.07056	0.000305176	
2.77893	1.06354	0.000152588	
2.77863	1.05499	0.000610352	
2.77893	1.04553	0.000152588	
2.77954	1.03912	0.000457764	
2.77802	1.03058	0.000305176	
2.77527	1.02112	0.000305176	
2.77435	1.0144	-0.000152588	
2.77374	1.00677	0.000762939	
2.77374	0.996399	0.000610352	
2.77405	0.987244	0.000457764	
2.77435	0.976868	0.000152588	
2.77283	0.967102	0.000762939	
2.77069	0.957947	0.000457764	
2.76917	0.948181	0.000610352	
2.76886	0.9375	0.000305176	
2.76886	0.928345	0.000152588	
2.76855	0.918884	0	
2.76855	0.908813	0.000915527	
2.7655	0.898743	0.000305176	
2.76367	0.889282	0.000457764	
2.76367	0.875549	0	
2.76398	0.864258	0.000762939	
2.76398	0.854797	0.000457764	
2.76428	0.844727	0.000457764	
2.76337	0.835266	0.000457764	
2.76031	0.822144	0.000610352	
2.75909	0.810852	-0.000305176	
2.75879	0.800781	0.000762939	
2.75909	0.787048	0.000305176	
2.75909	0.776367	0.000457764	
2.75848	0.765991	0	
2.75543	0.753784	0.000457764	
2.75452	0.741577	0.000457764	
2.75421	0.72937	0.000305176	
2.75452	0.716858	0.000762939	
2.75452	0.707703	0.000762939	
2.75421	0.69397	0.000152588	
2.7536	0.682983	0.0012207	
2.75085	0.670471	0.000305176	
2.74902	0.658569	0.000457764	
2.74963	0.645447	0.000152588	
2.74963	0.63385	0.000457764	
2.74933	0.620728	0.000152588	
2.74872	0.609436	0.000305176	
2.74567	0.596924	0.000457764	
2.74445	0.584717	0.000762939	
2.74414	0.571594	0.000305176	
2.74414	0.560303	0.000762939	
2.74384	0.547791	0.000762939	
2.74445	0.532837	0.000305176	
2.74139	0.52063	0.000457764	
2.73956	0.508118	0.000610352	
2.73926	0.496216	0.000457764	
2.73956	0.483093	0.000305176	
2.73895	0.472107	0.000152588	
2.73865	0.459595	-0.000152588	
2.73621	0.447388	0	
2.73499	0.434875	0.000915527	
2.73468	0.420227	0.000610352	
2.73346	0.40802	0.000610352	
2.73438	0.395508	0.000152588	
2.73438	0.383911	0.00106812	
2.73102	0.371399	0.000762939	
2.7301	0.359802	0.000457764	
2.7298	0.345764	0.000457764	
2.72949	0.331421	0.000457764	
2.7301	0.320129	0	
2.72888	0.307617	0.000610352	
2.72644	0.296021	0	
2.72491	0.283203	0.000457764	
2.724	0.271606	0.000305176	
2.7243	0.258179	0.000457764	
2.724	0.243225	0.000305176	
2.72125	0.232239	0.000610352	
2.72034	0.218811	0.000915527	
2.72003	0.207214	0.000762939	
2.71912	0.194397	0.000305176	
2.71973	0.1828	0.000915527	
2.71912	0.169678	0.000305176	
2.71606	0.158081	0.000610352	
2.71484	0.144958	0.000305176	
2.71484	0.134277	0.000457764	
2.71423	0.120544	0.000305176	
2.71393	0.109863	0.000305176	
2.71088	0.0964355	0.000610352	
2.70996	0.0842285	0.000457764	
2.70996	0.0723267	0	
2.70905	0.0610352	0.000610352	
2.70935	0.0482178	0.000610352	
2.7063	0.0357056	0.000457764	
2.70569	0.0228882	0.000457764	
2.70447	0.0125122	0.000457764	
2.70477	0.00152588	0.000457764	
2.70508	-0.0109863	0.000915527	
2.70386	-0.0222778	0.000457764	
2.70111	-0.0357056	-0.000152588	
2.7005	-0.0466919	-0.000152588	
2.69958	-0.0561523	0.000305176	
2.69958	-0.06073	0.000305176	
2.69867	-0.06073	0.000457764	
2.69623	-0.0604248	0.000457764	
2.6947	-0.0613403	0.000915527	
2.6947	-0.0604248	0.000457764	
2.6944	-0.0604248	0.000610352	
2.69409	-0.0601196	0.000457764	
2.69165	-0.0601196	0.000457764	
2.69043	-0.0604248	0.000457764	
2.68982	-0.0601196	0.000305176	
2.69104	-0.06073	0.000152588	
2.6889	-0.0598145	0.000457764	
2.68616	-0.0610352	0	
2.68585	-0.0610352	0.000762939	
2.68494	-0.0601196	0.000457764	
2.68524	-0.06073	0.000610352	
2.68402	-0.06073	0.000762939	
2.68188	-0.0598145	0.000762939	
2.68066	-0.06073	0.000457764	
2.67975	-0.06073	0.000305176	
2.67944	-0.06073	0.000457764	
2.67883	-0.0610352	0.000457764	
2.6767	-0.0610352	0.000152588	
2.67517	-0.0604248	0.000610352	
2.67517	-0.0610352	0	
2.67426	-0.0601196	0.000457764	
2.67487	-0.0604248	0.000305176	
2.67212	-0.0604248	0.000305176	
2.6712	-0.0604248	0.000457764	
2.66998	-0.0601196	0.000305176	
2.67059	-0.0604248	0.000762939	
2.66937	-0.0601196	0.000610352	
2.66663	-0.0610352	0.000152588	
2.66479	-0.0604248	0.000762939	
2.66479	-0.0601196	0.000610352	
2.66449	-0.0610352	0.000305176	
2.66205	-0.0598145	0.000152588	
2.66083	-0.0610352	0.000457764	
2.66022	-0.0604248	0.000457764	
2.66022	-0.0598145	0.000457764	
2.65991	-0.06073	0.000457764	
2.65656	-0.06073	0.000152588	
2.65533	-0.06073	-0.000152588	
2.65472	-0.06073	0.000762939	
2.65564	-0.0604248	0.000457764	
2.65472	-0.0601196	0.000457764	
2.65228	-0.0601196	0.000457764	
2.65045	-0.0604248	0.000457764	
2.65076	-0.06073	0.000457764	
2.64954	-0.06073	0.000305176	
2.64709	-0.06073	0.000305176	
2.64587	-0.06073	0.000457764	
2.64557	-0.0601196	0.000305176	
2.64557	-0.0604248	0.000457764	
2.64496	-0.0610352	0.000610352	
2.64252	-0.06073	0.000457764	
2.64191	-0.0604248	0.000762939	
2.64008	-0.0817871	0.00137329	
2.64038	-0.436401	0.000152588	
2.63733	-0.626831	0.000457764	
2.63611	-0.668945	0.000457764	
2.6355	-0.677795	0.000457764	
2.6355	-0.682068	0.000305176	
2.63458	-0.689392	0.000762939	
2.63245	-0.695801	0.000152588	
2.63123	-0.703735	0.000305176	
2.63062	-0.710144	-0.000305176	
2.63031	-0.718689	0.000915527	
2.62756	-0.725098	0.000305176	
2.62604	-0.730286	0.000610352	
2.62604	-0.737915	0.000610352	
2.62573	-0.744934	0.000457764	
2.62543	-0.749512	0.000305176	
2.62207	-0.757751	0.000915527	
2.62115	-0.764465	0.000457764	
2.62085	-0.769958	0.000610352	
2.61993	-0.774536	-0.000457764	
2.6178	-0.782166	0.000915527	
2.61627	-0.788574	0.000305176	
2.61597	-0.792847	0.000457764	
2.61505	-0.79834	0	
2.6123	-0.803223	0.000305176	
2.61047	-0.812073	0	
2.61139	-0.818481	0.000915527	
2.61169	-0.823364	0.000762939	
2.61047	-0.828247	0.000457764	
2.60742	-0.833435	-0.000152588	
2.60651	-0.837708	0.00106812	
2.60559	-0.843506	0.000610352	
2.60559	-0.847778	0	
2.60315	-0.852661	0.000152588	
2.60132	-0.857544	0.000305176	
2.60132	-0.862122	0	
2.60071	-0.867004	0.000762939	
2.59796	-0.872803	0.000305176	
2.59613	-0.87738	0.000457764	
2.59674	-0.882263	0	
2.59644	-0.886841	0.000762939	
2.59552	-0.888062	0.000762939	
2.59247	-0.888672	0.000305176	
2.59155	-0.888977	0.000915527	
2.59094	-0.888672	0.000762939	
2.59094	-0.892029	0	
2.58728	-0.897217	0.000305176	
2.58667	-0.901489	0.000457764	
2.58636	-0.906677	0.000457764	
2.58636	-0.909119	0.000457764	
2.58331	-0.911865	0.000152588	
2.5824	-0.916443	0	
2.58087	-0.921936	0.000610352	
2.58087	-0.926208	0	
2.57874	-0.930481	0.00106812	
2.57751	-0.933228	0.000305176	
2.57751	-0.936279	0.000762939	
2.5766	-0.940552	0.000762939	
2.57355	-0.941772	0.000457764	
2.57233	-0.94574	0.000152588	
2.57263	-0.950928	0.000152588	
2.57141	-0.955505	0.000152588	
2.56836	-0.957642	0.000152588	
2.56683	-0.960693	-0.000152588	
2.56714	-0.964966	0.000915527	
2.56714	-0.966797	0	
2.56714	-0.969849	0.000762939	
2.56348	-0.971985	0.000610352	
2.56226	-0.975342	0.000305176	
2.56226	-0.979004	0.000305176	
2.56165	-0.982361	0.000762939	
2.55829	-0.985107	0.000457764	
2.55737	-0.986023	0.000457764	
2.55646	-0.990295	0	
2.55585	-0.991821	0.0012207	
2.5531	-0.994873	0.000152588	
2.55219	-0.996704	0.000762939	
2.55188	-0.999756	0.000457764	
2.55188	-1.00159	0.000457764	
2.54944	-1.00464	0.000457764	
2.54761	-1.00616	0.000610352	
2.5473	-1.00647	0.000305176	
2.54608	-1.00983	0.000610352	
2.54395	-1.01135	0	
2.54242	-1.0141	0.00106812	
2.54181	-1.01624	0.000457764	
2.5415	-1.01624	0.000610352	
2.53967	-1.01929	0.000152588	
2.53784	-1.02142	0.000610352	
2.53693	-1.02112	0.000305176	
2.53632	-1.02356	0.000152588	
2.53448	-1.026	0.000457764	
2.53235	-1.02661	0.000457764	
2.53204	-1.02966	0.000152588	
2.53174	-1.03058	0.000915527	
2.5293	-1.03088	0.000152588	
2.52808	-1.0318	0.000762939	
2.52716	-1.03394	0.000457764	
2.52686	-1.03577	0.000457764	
2.52472	-1.03577	0.000457764	
2.5235	-1.03607	0.000152588	
2.52228	-1.03851	0.000305176	
2.51984	-1.04004	0.000305176	
2.5177	-1.03973	0	
2.51801	-1.04034	0.000915527	
2.5174	-1.04065	0	
2.51373	-1.04004	0.000610352	
2.51312	-1.0437	0.000457764	
2.51251	-1.04523	0.000457764	
2.51221	-1.04492	0.000152588	
2.50916	-1.04584	0.000610352	
2.50793	-1.04584	0.000762939	
2.50732	-1.04584	0.000305176	
2.50763	-1.04553	0	
2.50427	-1.04523	0.000762939	
2.50336	-1.04584	0	
2.50275	-1.04858	0.000610352	
2.50244	-1.05042	0.000457764	
2.50031	-1.05072	0.000457764	
2.49908	-1.05042	0.000457764	
2.49817	-1.05042	0.000762939	
2.49756	-1.05103	0.000457764	
2.49512	-1.05103	0.000457764	
2.49359	-1.05072	0.000152588	
2.49268	-1.05011	0.000915527	
2.49268	-1.05011	0.000305176	
2.48932	-1.05042	0.000457764	
2.48871	-1.0495	0.000305176	
2.4881	-1.05042	0.000305176	
2.48444	-1.05072	0.000305176	
2.48383	-1.05011	0.000305176	
2.48413	-1.05042	0.000305176	
2.4823	-1.04706	0.000457764	
2.47955	-1.04553	0.000305176	
2.47833	-1.04553	0.000915527	
2.47803	-1.04584	0.000305176	
2.47742	-1.04553	0.000610352	
2.47467	-1.04614	0.000762939	
2.47375	-1.04614	0.000457764	
2.47314	-1.04553	0.000457764	
2.47284	-1.04584	0	
2.46948	-1.04523	0.000762939	
2.46796	-1.04248	0.000305176	
2.46857	-1.04095	-0.000152588	
2.46765	-1.04065	0.000762939	
2.46521	-1.04065	0.000152588	
2.46399	-1.04034	0.000915527	
2.46216	-1.04034	0.000610352	
2.45972	-1.04065	0.000457764	
2.4588	-1.03699	0.000457764	
2.4588	-1.03546	0.000457764	
2.45789	-1.03577	0.000305176	
2.45483	-1.03516	0.000152588	
2.45361	-1.03516	-0.000305176	
2.45392	-1.03302	0.000762939	
2.4527	-1.03119	0.000305176	
2.44995	-1.03119	0.000457764	
2.44904	-1.03088	0.000762939	
2.44843	-1.03058	0.000305176	
2.44812	-1.02753	0.000457764	
2.44507	-1.02631	0.000762939	
2.44385	-1.02539	0.000152588	
2.44293	-1.0257	0.000305176	
2.44019	-1.02295	0	
2.43958	-1.02081	0.00106812	
2.43866	-1.02081	0	
2.43774	-1.02112	0.000610352	
2.43561	-1.01776	0.000305176	
2.43378	-1.01654	0.000457764	
2.43347	-1.01532	0.000457764	
2.43317	-1.01624	0.000305176	
2.43011	-1.01288	0.000457764	
2.4295	-1.01227	0.000610352	
2.42859	-1.01105	0.000457764	
2.42798	-1.0083	0.00106812	
2.42493	-1.00708	0	
2.42371	-1.00586	0.000762939	
2.4234	-1.00677	0.000305176	
2.42035	-1.00372	0.000762939	
2.41943	-1.00128	0.000457764	
2.41943	-1.00067	0.000152588	
2.41882	-0.997925	0.000152588	
2.41577	-0.996704	0.000457764	
2.41425	-0.996094	-0.000152588	
2.41455	-0.993042	0.000610352	
2.41364	-0.992432	0	
2.41028	-0.990906	0.000915527	
2.40906	-0.988464	0.000915527	
2.40845	-0.986328	0.000610352	
2.4057	-0.986938	0.000305176	
2.40448	-0.983276	0.000305176	
2.40387	-0.982056	0.000305176	
2.40387	-0.979309	0.000610352	
2.40112	-0.976563	-0.000152588	
2.3996	-0.975952	0.000915527	
2.39929	-0.974121	0.000152588	
2.39838	-0.97168	0.000610352	
2.39532	-0.97168	0.000610352	
2.39471	-0.969543	0.000152588	
2.39441	-0.967102	0.000457764	
2.39136	-0.963745	0.000762939	
2.39014	-0.96283	0.000457764	
2.38953	-0.962524	0.000305176	
2.38922	-0.959473	0.000152588	
2.38617	-0.957031	0.000457764	
2.38464	-0.954285	0.000152588	
2.38434	-0.951843	0.000610352	
2.38342	-0.951843	0.000152588	
2.38159	-0.948486	0.000305176	
2.38007	-0.94696	0.000152588	
2.37915	-0.944824	0	
2.3764	-0.942993	0.000457764	
2.37457	-0.942078	0.000610352	
2.37457	-0.939636	0.000457764	
2.37427	-0.938416	0.00106812	
2.37122	-0.935364	0.000305176	
2.36969	-0.933228	0.000457764	
2.37	-0.930786	0.000305176	
2.36908	-0.92804	0.000762939	
2.36694	-0.927734	0.000305176	
2.36511	-0.925293	0.000305176	
2.3642	-0.923157	0.000457764	
2.36145	-0.920105	0.000305176	
2.35992	-0.917969	-0.000305176	
2.35931	-0.915527	0.00106812	
2.35931	-0.913696	0.000457764	
2.35626	-0.910034	0.000915527	
2.35504	-0.908203	0.000762939	
2.35535	-0.908508	0.000610352	
2.35443	-0.905151	0.000610352	
2.35138	-0.90332	0.000305176	
2.35077	-0.900879	0.000305176	
2.34924	-0.899048	0.000457764	
2.34589	-0.896301	-0.000152588	
2.34528	-0.89386	0.00106812	
2.34436	-0.890198	0.000152588	
2.34436	-0.888367	0.000457764	
2.34192	-0.885315	0.000457764	
2.3407	-0.883789	0.000457764	
2.34039	-0.880432	0.000610352	
2.33917	-0.878906	0.000762939	
2.33673	-0.878601	0.000457764	
2.33551	-0.875854	0.000610352	
2.33551	-0.874023	0	
2.33246	-0.871277	0.000915527	
2.33063	-0.870056	0.000152588	
2.33063	-0.865173	0.000305176	
2.33002	-0.864563	0.000457764	
2.32697	-0.861206	0.000457764	
2.32544	-0.858765	0.000152588	
2.32574	-0.856628	0.000152588	
2.32483	-0.854492	0.000610352	
2.32178	-0.851746	0.000457764	
2.32086	-0.850525	0.000457764	
2.31964	-0.847168	0.0012207	
2.3172	-0.844727	0.000610352	
2.31628	-0.84137	0.000762939	
2.31537	-0.839844	0.000457764	
2.31476	-0.837097	0.000457764	
2.31201	-0.834961	0.000305176	
2.31079	-0.831909	0.000305176	
2.31018	-0.829773	0.000305176	
2.30988	-0.826416	0.000457764	
2.30713	-0.825195	0	
2.3056	-0.821838	0.000610352	
2.30408	-0.820313	0.000305176	
2.30255	-0.816956	0.000915527	
2.30103	-0.815125	0.000457764	
2.30072	-0.812378	0.000305176	
2.2998	-0.810547	0.000305176	
2.29706	-0.80719	0.000915527	
2.29614	-0.805664	0.000305176	
2.29584	-0.802612	0.000305176	
2.29492	-0.800171	-0.000152588	
2.29279	-0.797729	0.000762939	
2.29156	-0.795593	0.000152588	
2.29095	-0.792542	0.000457764	
2.28973	-0.79071	0.000305176	
2.2876	-0.787354	0.000305176	
2.28577	-0.782776	0.000915527	
2.28516	-0.78125	0.000762939	
2.28271	-0.778198	0.000610352	
2.28119	-0.776978	0.000457764	
2.28058	-0.773621	0.000305176	
2.28027	-0.771179	0.00106812	
2.27783	-0.768433	0.000152588	
2.27631	-0.766602	0.000762939	
2.27631	-0.762939	0.000457764	
2.27478	-0.761108	0	
2.27203	-0.758667	0.000762939	
2.27142	-0.756531	0.000305176	
2.27081	-0.753479	0.000457764	
2.26776	-0.752563	0.000305176	
2.26685	-0.748596	0.000305176	
2.26593	-0.746765	0.000915527	
2.26624	-0.743713	0.000457764	
2.26257	-0.741577	0.000610352	
2.26196	-0.739136	0.000305176	
2.26196	-0.736694	0.000305176	
2.26105	-0.733643	0.000305176	
2.25739	-0.72937	0.000152588	
2.25647	-0.727539	0.000457764	
2.25647	-0.724792	0.000305176	
2.25525	-0.723572	-0.000305176	
2.25281	-0.718689	0.000915527	
2.25128	-0.717163	0.000152588	
2.25006	-0.713806	0.000915527	
2.24823	-0.71228	0.000762939	
2.24701	-0.709534	0.000457764	
2.24579	-0.707397	0.000457764	
2.24579	-0.704041	0.000305176	
2.24335	-0.70282	0.000610352	
2.24182	-0.699768	0.000152588	
2.24152	-0.697021	-0.000152588	
2.2403	-0.694885	0.000915527	
2.23816	-0.690002	0.000152588	
2.23694	-0.687866	0.000457764	
2.23633	-0.68512	0.000457764	
2.23541	-0.682983	0.000457764	
2.23297	-0.680237	0.000610352	
2.23206	-0.678101	0.000762939	
2.23083	-0.675049	0.000610352	
2.23083	-0.673218	0.000610352	
2.22748	-0.670166	-0.000152588	
2.22595	-0.668335	0.00106812	
2.22595	-0.665283	0.000305176	
2.22595	-0.663452	0.000610352	
2.22321	-0.660095	0	
2.22168	-0.658264	0.000152588	
2.22107	-0.655518	0.000305176	
2.21832	-0.65094	0.000457764	
2.21771	-0.648193	0.000152588	
2.21649	-0.645142	0.000610352	
2.21588	-0.643311	0.000305176	
2.21313	-0.640564	0.000762939	
2.21191	-0.639038	0.000152588	
2.21161	-0.635681	0.000915527	
2.2113	-0.634155	0.000457764	
2.20856	-0.629578	0.000610352	
2.20703	-0.628662	0.000152588	
2.20612	-0.625305	-0.000152588	
2.20612	-0.62439	0.000152588	
2.20276	-0.621643	0.000457764	
2.20245	-0.619507	-0.000152588	
2.20154	-0.615845	0.000762939	
2.20123	-0.614624	0.000152588	
2.19849	-0.611267	0.000762939	
2.19727	-0.606689	0.000762939	
2.19727	-0.604248	0.000305176	
2.19635	-0.601501	0.000457764	
2.1936	-0.59967	0.000457764	
2.19238	-0.596313	0.000457764	
2.19238	-0.596008	0.000457764	
2.19116	-0.591431	0	
2.18872	-0.5896	0.000915527	
2.18719	-0.586853	-0.000152588	
2.18689	-0.585022	0.000305176	
2.18628	-0.582275	0.000457764	
2.18384	-0.580444	0.000457764	
2.18231	-0.577087	0.000457764	
2.18231	-0.575256	0.000457764	
2.18231	-0.571594	0.000457764	
2.17926	-0.570984	0.000457764	
2.17743	-0.566406	0.000305176	
2.17773	-0.565186	0.000915527	
2.17651	-0.562439	0.000457764	
2.17438	-0.561218	0.000762939	
2.17316	-0.557556	0.000457764	
2.17285	-0.55542	0.000152588	
2.17194	-0.552063	0.000610352	
2.16888	-0.550537	0.000610352	
2.16797	-0.547791	0.000305176	
2.16705	-0.545959	0.000305176	
2.16736	-0.542603	0.000305176	
2.164	-0.541077	0.000457764	
2.16248	-0.53772	0	
2.16339	-0.535583	0.000610352	
2.16217	-0.532837	0.000152588	
2.15912	-0.530701	0.000610352	
2.15759	-0.528259	0.000610352	
2.1579	-0.526123	0	
2.15668	-0.523376	0.000305176	
2.15454	-0.52124	0.000305176	
2.1521	-0.517578	-0.000152588	
2.1524	-0.516357	0.000915527	
2.15149	-0.513916	0	
2.14935	-0.511169	0.000915527	
2.14752	-0.507813	0.000762939	
2.14722	-0.506592	0.000305176	
2.14722	-0.50354	0.000305176	
2.14417	-0.501709	0.000762939	
2.14325	-0.498047	0.000762939	
2.14264	-0.496216	0	
2.14172	-0.493469	-0.000152588	
2.13959	-0.491638	0.000762939	
2.13776	-0.488892	0.000457764	
2.13745	-0.487061	0.000457764	
2.13745	-0.483093	0.000610352	
2.13501	-0.482178	0.000305176	
2.13257	-0.478516	0.000762939	
2.13287	-0.476685	0.000610352	
2.13257	-0.473328	0.000610352	
2.12982	-0.471497	0.000457764	
2.1283	-0.471802	0	
2.12738	-0.46875	0.000762939	
2.12708	-0.467529	0.000305176	
2.12769	-0.463867	0.000762939	
2.12463	-0.462952	0.000152588	
2.12311	-0.458984	0.000305176	
2.1225	-0.458069	0.000305176	
2.1228	-0.455017	0.000152588	
2.11945	-0.452881	0	
2.11792	-0.449219	0.000305176	
2.11792	-0.447388	-0.000152588	
2.11761	-0.447693	0.000762939	
2.11456	-0.444946	0.000457764	
2.11395	-0.44281	0.000915527	
2.11273	-0.439453	0	
2.11243	-0.437622	0.000610352	
2.10968	-0.435486	0.000152588	
2.10876	-0.432739	0.000305176	
2.10815	-0.429688	0.000152588	
2.10754	-0.427856	0.000457764	
2.1051	-0.42511	-0.000152588	
2.10327	-0.423889	0.0012207	
2.10297	-0.422974	0	
2.10327	-0.419617	0.000762939	
2.10266	-0.418091	0.000457764	
2.10083	-0.415039	0.000610352	
2.09839	-0.413818	0.000152588	
2.09808	-0.409851	0.000610352	
2.09778	-0.408325	0.000305176	
2.09473	-0.40802	0.000305176	
2.09351	-0.405579	0	
2.09381	-0.402832	0.000762939	
2.0932	-0.400391	0.000152588	
2.08984	-0.39856	0.000762939	
2.08862	-0.395508	0.000305176	
2.08862	-0.393982	0.000152588	
2.08862	-0.393372	0.000610352	
2.08801	-0.39032	0.000915527	
2.08496	-0.388794	0.000915527	
2.08374	-0.385742	0.000762939	
2.08282	-0.383911	0	
2.08313	-0.38269	0.0012207	
2.08038	-0.380554	0.000152588	
2.07886	-0.379028	0.000457764	
2.07886	-0.375671	0.000610352	
2.07794	-0.37384	0.000610352	
2.07489	-0.373535	0.000610352	
2.07397	-0.371094	0.000305176	
2.07336	-0.368958	0.000305176	
2.07367	-0.366211	0.000457764	
2.07275	-0.36438	0.000152588	
2.07031	-0.363159	0.00106812	
2.06848	-0.361023	0	
2.06879	-0.359192	0.000915527	
2.06818	-0.35614	0.000152588	
2.06543	-0.354614	0.000305176	
2.0639	-0.354004	0.000305176	
2.0636	-0.350647	0.000305176	
2.0639	-0.349731	0.000305176	
2.06299	-0.346069	0.000610352	
2.05963	-0.344543	0	
2.05902	-0.344238	0.00106812	
2.05841	-0.341492	0.000152588	
2.05811	-0.339661	0.000457764	
2.05505	-0.33905	0.000457764	
2.05444	-0.336304	0.000762939	
2.05353	-0.334473	0.000152588	
2.05383	-0.331726	0.000610352	
2.05322	-0.330505	0.000457764	
2.05048	-0.3302	0.000610352	
2.04834	-0.326233	-0.000457764	
2.04926	-0.325317	0.000915527	
2.04865	-0.324707	0.000305176	
2.04834	-0.321655	0.000762939	
2.04529	-0.320129	0.000305176	
2.04407	-0.316772	0.000305176	
2.04437	-0.316162	0.000762939	
2.04407	-0.314941	0.000457764	
2.0401	-0.3125	0.000457764	
2.03949	-0.311279	0.000305176	
2.03918	-0.310669	0.000305176	
2.03949	-0.307312	0.000915527	
2.03857	-0.306396	0.000152588	
2.03613	-0.304871	0.000305176	
2.03461	-0.302734	0.000305176	
2.034	-0.301208	0.000457764	
2.03339	-0.296936	0.000457764	
2.03064	-0.296021	0.000152588	
2.02972	-0.296326	0.000457764	
2.0285	-0.292969	0.000305176	
2.02881	-0.291138	0.000152588	
2.02911	-0.290222	0.00106812	
2.02545	-0.287476	0	
2.02454	-0.28595	0.000915527	
2.02362	-0.28656	0.000457764	
2.02393	-0.282898	0.000457764	
2.02393	-0.281372	0	
2.02148	-0.281067	-0.000152588	
2.01935	-0.27771	0.000305176	
2.01965	-0.276489	0.000305176	
2.01965	-0.275879	-0.000305176	
2.01843	-0.273438	0.000915527	
2.01569	-0.271606	0	
2.01477	-0.271301	0.000762939	
2.01447	-0.267944	0.000305176	
2.01477	-0.266418	0.000457764	
2.01477	-0.266113	0.000457764	
2.01111	-0.263367	0.000457764	
2.00989	-0.261841	0.000152588	
2.01019	-0.260925	0.000610352	
2.00928	-0.258484	-0.000152588	
2.00592	-0.256958	0.000915527	
2.0047	-0.256042	0.000152588	
2.00439	-0.252686	0.000762939	
2.00439	-0.251465	0.000152588	
2.00439	-0.251465	0.000305176	
2.00104	-0.248413	0.000610352	
1.99982	-0.246582	0.000762939	
2.00012	-0.245667	0.000762939	
1.99982	-0.24292	0.000610352	
1.99951	-0.242004	0.000305176	
1.99707	-0.241699	0.000915527	
1.99463	-0.238342	0.000305176	
1.99432	-0.237427	0.000610352	
1.99432	-0.236511	-0.000152588	
1.99432	-0.233765	0.000762939	
1.99219	-0.232239	0.000305176	
1.98975	-0.231628	0.000305176	
1.98944	-0.228882	0.000152588	
1.99005	-0.226746	0.000457764	
1.98914	-0.226746	0	
1.98608	-0.223694	0.00106812	
1.98486	-0.221863	0.000305176	
1.98486	-0.221863	0.000915527	
1.98486	-0.218811	0.000152588	
1.98425	-0.218201	0.000457764	
1.98151	-0.217896	0.000152588	
1.98059	-0.214539	0	
1.97998	-0.212708	0.000305176	
1.97998	-0.212402	0.000457764	
1.97968	-0.212402	-0.000152588	
1.97968	-0.209045	0.00106812	
1.97662	-0.207825	0.000305176	
1.97479	-0.20752	0.000762939	
1.97479	-0.205078	0.000305176	
1.97571	-0.202637	0.000305176	
1.97449	-0.202332	0.000152588	
1.97144	-0.199585	0.000610352	
1.96991	-0.198059	0.000305176	
1.97083	-0.196838	0.000610352	
1.9696	-0.194397	-0.000152588	
1.9693	-0.192871	0.000915527	
1.96625	-0.192566	0.000152588	
1.96503	-0.189514	0.000610352	
1.96533	-0.187988	0.000152588	
1.96564	-0.187988	0	
1.96442	-0.188293	0.000305176	
1.96136	-0.184631	0.000762939	
1.95984	-0.183411	0.000610352	
1.96014	-0.18219	0.000457764	
1.96014	-0.180054	0.000152588	
1.95984	-0.178223	0.00106812	
1.95953	-0.178528	0	
1.95648	-0.175171	0.000152588	
1.95557	-0.174255	0	
1.95526	-0.17334	0.000457764	
1.95496	-0.170593	0.000457764	
1.95435	-0.167847	0.000152588	
1.9519	-0.168457	0.000305176	
1.95007	-0.168152	0.000305176	
1.94977	-0.1651	0.000152588	
1.95099	-0.162964	0.00106812	
1.95038	-0.162354	0.000305176	
1.95007	-0.160217	0.000915527	
1.94763	-0.158691	0.000610352	
1.9455	-0.157471	0.000457764	
1.94519	-0.154724	0	
1.94519	-0.153809	-0.000152588	
1.9455	-0.153503	0.000305176	
1.94183	-0.153503	0.000610352	
1.94031	-0.150146	-0.000152588	
1.94031	-0.149231	0.000762939	
1.94031	-0.148621	-0.000152588	
1.94	-0.145264	0.000762939	
1.94	-0.144043	0.000762939	
1.93726	-0.143738	0.000305176	
1.93573	-0.141296	0.000457764	
1.93604	-0.13855	0.000457764	
1.93573	-0.13855	0.000762939	
1.93481	-0.137939	0.000305176	
1.93268	-0.136108	-0.000305176	
1.93115	-0.134277	0.00106812	
1.92993	-0.133972	0.000305176	
1.93146	-0.131226	0.000610352	
1.92993	-0.129089	0.000152588	
1.92963	-0.129089	0.000457764	
1.92749	-0.128479	0.000610352	
1.92627	-0.125427	0.000915527	
1.92566	-0.125122	0.000610352	
1.92566	-0.123901	0.000457764	
1.92566	-0.12146	-0.000152588	
1.92505	-0.119324	0.00106812	
1.922	-0.118713	0.000152588	
1.92078	-0.119019	0.000457764	
1.92047	-0.116272	0.000152588	
1.92047	-0.115051	0.000610352	
1.92047	-0.113831	0.000457764	
1.92047	-0.111389	0.000152588	
1.91711	-0.108948	0.000305176	
1.91559	-0.109558	0.000457764	
1.91559	-0.109253	0.000305176	
1.91589	-0.106201	0.0012207	
1.9162	-0.10498	0.000457764	
1.91528	-0.104675	0.000915527	
1.91162	-0.101624	0.000762939	
1.91132	-0.0997925	0.000457764	
1.9101	-0.0997925	0.000305176	
1.9101	-0.0997925	0	
1.9104	-0.0967407	0.000457764	
1.9104	-0.0952148	0.000152588	
1.90735	-0.0949097	0.000152588	
1.90643	-0.0946045	0.00106812	
1.90582	-0.0915527	0.000610352	
1.90613	-0.0894165	0.000762939	
1.90552	-0.0897217	0.000610352	
1.90552	-0.0863647	0.000457764	
1.90277	-0.0854492	0.000610352	
1.90125	-0.0848389	0.000610352	
1.90094	-0.085144	0.000457764	
1.90002	-0.0817871	0.000305176	
1.90094	-0.0802612	-0.000305176	
1.90033	-0.0799561	0.000762939	
1.89758	-0.0799561	0.000152588	
1.89697	-0.0765991	0.000762939	
1.89636	-0.0753784	0.000457764	
1.89636	-0.0753784	0.000762939	
1.89575	-0.0747681	0.000610352	
1.89575	-0.0717163	0.00106812	
1.8924	-0.0704956	0.000457764	
1.89148	-0.0701904	0.000457764	
1.89087	-0.0668335	0.000152588	
1.89087	-0.0653076	0.000915527	
1.89148	-0.0656128	-0.000152588	
1.89087	-0.0650024	0.000610352	
1.88751	-0.0622559	0.000305176	
1.8866	-0.06073	0.000152588	
1.88599	-0.0598145	0.000610352	
1.88599	-0.0604248	0.000457764	
1.88629	-0.0567627	0.000305176	
1.88599	-0.0564575	0.000610352	
1.88538	-0.055542	0.000457764	
1.88232	-0.055542	0.00106812	
1.88171	-0.0524902	0.000305176	
1.8808	-0.0512695	0.00106812	
1.8811	-0.0506592	0.000457764	
1.8811	-0.050354	0.000457764	
1.8808	-0.0473022	0	
1.87775	-0.0457764	0	
1.87592	-0.0454712	0.000305176	
1.87653	-0.0454712	0.000305176	
1.87683	-0.0421143	-0.000152588	
1.87622	-0.0411987	0.00106812	
1.87561	-0.0411987	0.000305176	
1.87561	-0.0408936	0.000762939	
1.87317	-0.0405884	0.000915527	
1.87195	-0.0375366	0.000915527	
1.87164	-0.0360107	0.000457764	
1.87164	-0.0360107	0.000610352	
1.87195	-0.0354004	0.000305176	
1.87042	-0.0326538	0.000610352	
1.86798	-0.0314331	-0.000457764	
1.86707	-0.0311279	0.000762939	
1.86646	-0.0308228	0.000152588	
1.86646	-0.0280762	0.000457764	
1.86676	-0.0259399	0.000152588	
1.86615	-0.0259399	0.000305176	
1.86584	-0.0253296	0.000457764	
1.8634	-0.0228882	0.000762939	
1.86188	-0.0213623	0.000305176	
1.86188	-0.0213623	0.000610352	
1.86096	-0.0210571	0.000152588	
1.86188	-0.0204468	0.000915527	
1.86157	-0.017395	0.000305176	
1.86066	-0.0167847	0.000457764	
1.85852	-0.0164795	0.000305176	
1.8576	-0.0161743	0.000305176	
1.85669	-0.0131226	0.000152588	
1.85638	-0.0119019	0.000457764	
1.8573	-0.0109863	0.000457764	
1.85699	-0.0119019	0.000457764	
1.85608	-0.0115967	0.000152588	
1.85364	-0.00762939	0.00106812	
1.85211	-0.00610352	0.000152588	
1.85181	-0.00701904	0.000915527	
1.8515	-0.00671387	0.000457764	
1.85242	-0.00671387	0.000457764	
1.85242	-0.00305176	0.000305176	
1.8512	-0.00183105	0.000152588	
1.84845	-0.00152588	0.000305176	
1.84692	-0.00152588	0.000610352	
1.84631	-0.00213623	-0.000305176	
1.84692	0.0012207	0.000610352	
1.84662	0.00274658	0.000610352	
1.84692	0.00335693	0.000762939	
1.84601	0.00335693	0.000305176	
1.84326	0.00610352	0.000457764	
1.84174	0.00762939	0.000457764	
1.84204	0.00854492	0.000610352	
1.84143	0.00823975	0.000457764	
1.84235	0.00823975	0.000457764	
1.84174	0.0112915	-0.000457764	
1.84204	0.0125122	0.000915527	
1.83807	0.0125122	-0.000152588	
1.83655	0.0128174	0.000457764	
1.83624	0.0128174	0.000457764	
1.83685	0.0134277	0.000457764	
1.83746	0.0161743	0	
1.83655	0.0180054	0.000762939	
1.83624	0.0180054	0.000457764	
1.83319	0.0186157	0.000610352	
1.83197	0.017395	0	
1.83197	0.020752	0.00106812	
1.83167	0.022583	0.000152588	
1.83136	0.022583	0.000305176	
1.83167	0.022583	0.000305176	
1.83136	0.0228882	0.000152588	
1.82892	0.0259399	0.000762939	
1.82678	0.0271606	0.000457764	
1.82709	0.0274658	0.000610352	
1.82739	0.027771	0.000305176	
1.82648	0.027771	0.000152588	
1.82709	0.027771	0.0012207	
1.82709	0.0308228	0.000152588	
1.82587	0.032959	0.000762939	
1.82343	0.0326538	0	
1.8222	0.032959	0.000457764	
1.8222	0.0323486	0.000152588	
1.8219	0.0323486	-0.000152588	
1.82159	0.0354004	0.000457764	
1.82159	0.0372314	0.000457764	
1.82159	0.0375366	-0.000152588	
1.81885	0.0372314	0.00106812	
1.81732	0.0378418	0.000152588	
1.81702	0.0378418	0.000915527	
1.81702	0.039978	0.000457764	
1.81732	0.0424194	0.000610352	
1.81671	0.0424194	0.000915527	
1.81702	0.0427246	0.000457764	
1.81671	0.0427246	0.000457764	
1.81396	0.0430298	0.000305176	
1.81213	0.0457764	-0.000152588	
1.81244	0.0479126	0.00106812	
1.81244	0.0476074	0.000610352	
1.81213	0.0476074	0.000762939	
1.81183	0.0479126	0.000610352	
1.81183	0.0476074	0.000305176	
1.80817	0.0506592	0.000457764	
1.80756	0.0521851	0.000457764	
1.80664	0.0531006	0.000762939	
1.80695	0.0527954	0.000457764	
1.80725	0.0518799	-0.000152588	
1.80725	0.0521851	0.000915527	
1.80786	0.0531006	0.000152588	
1.80664	0.055542	0.000610352	
1.80359	0.0570679	0.000305176	
1.80298	0.0570679	0.000305176	
1.80298	0.0576782	0.000152588	
1.80267	0.0579834	0.000610352	
1.80176	0.057373	0.000915527	
1.80237	0.0582886	0.000305176	
1.80237	0.0601196	0.000152588	
1.80084	0.0616455	0.00106812	
1.79871	0.0631714	0.000152588	
1.79749	0.0622559	0.000610352	
1.79749	0.062561	0.000762939	
1.79779	0.062561	0.000457764	
1.79749	0.0622559	0.000457764	
1.79718	0.0653076	0	
1.79779	0.0668335	0.000305176	
1.79688	0.0674438	0.000610352	
1.79382	0.0671387	-0.000305176	
1.79352	0.0665283	0.000915527	
1.7923	0.0668335	0.000305176	
1.7923	0.0674438	0.000762939	
1.79291	0.0704956	0.000610352	
1.7926	0.0720215	0.000305176	
1.7926	0.0720215	0.000457764	
1.7923	0.0723267	0.000152588	
1.78894	0.0717163	0.000305176	
1.78833	0.0723267	0.000305176	
1.78772	0.0717163	-0.000305176	
1.78772	0.0720215	0.00106812	
1.78802	0.0747681	0	
1.78772	0.0769043	0.000610352	
1.78741	0.0772095	0.000305176	
1.78711	0.0772095	0.000305176	
1.78436	0.0769043	0.000457764	
1.78314	0.0772095	0.000762939	
1.78284	0.0775146	0.000762939	
1.78284	0.0765991	0.000305176	
1.78284	0.0799561	0.000152588	
1.78284	0.0805664	0.00106812	
1.78314	0.0811768	0.000305176	
1.78253	0.0808716	0.000457764	
1.77917	0.0811768	0.000610352	
1.77795	0.0811768	-0.000152588	
1.77826	0.0811768	0.000457764	
1.77826	0.0817871	0.000610352	
1.77734	0.0814819	0.000305176	
1.77795	0.0845337	0.000762939	
1.77765	0.085144	0	
1.77734	0.0854492	0.00106812	
1.77734	0.0863647	0.000152588	
1.77399	0.0863647	0.000915527	
1.77338	0.0857544	0.000457764	
1.77246	0.0860596	0.000610352	
1.77307	0.0857544	0	
1.77246	0.0863647	0	
1.77307	0.0888062	0.000305176	
1.77338	0.090332	0.000610352	
1.77246	0.0906372	-0.000152588	
1.76941	0.0909424	0.0012207	
1.76819	0.0909424	0	
1.76758	0.0909424	0.000915527	
1.76758	0.0909424	0.000610352	
1.76758	0.0912476	0.000457764	
1.7688	0.090332	0.000457764	
1.76758	0.093689	0.000305176	
1.76788	0.0961304	0.000457764	
1.76697	0.0958252	0.000305176	
1.76453	0.0958252	-0.000457764	
1.763	0.09552	0.000915527	
1.76331	0.0958252	0	
1.763	0.0958252	0.000152588	
1.76239	0.0958252	0.000610352	
1.76331	0.09552	0.000305176	
1.76331	0.09552	0.000305176	
1.76331	0.0985718	0.000762939	
1.76147	0.100708	0.000610352	
1.75995	0.101013	0.000610352	
1.75781	0.100708	0	
1.75781	0.100098	0.000915527	
1.75842	0.100403	0.000305176	
1.75812	0.100403	0.000762939	
1.7572	0.100403	0.000610352	
1.75781	0.101013	0.000457764	
1.75842	0.100708	0.000610352	
1.75446	0.100708	0.000610352	
1.75323	0.104065	0.000457764	
1.75232	0.105286	0.000457764	
1.75323	0.105896	0.000152588	
1.75262	0.105896	0.000915527	
1.75232	0.105591	0	
1.75293	0.105591	0.000915527	
1.75323	0.105591	0.000457764	
1.75201	0.106201	0.000457764	
1.74927	0.105896	0.000152588	
1.74835	0.105591	0.000152588	
1.74835	0.108948	0.000305176	
1.74835	0.109558	0.000305176	
1.74835	0.110474	-0.000152588	
1.74713	0.110779	0.000762939	
1.74835	0.110474	0.000152588	
1.74805	0.111084	0.000915527	
1.74774	0.110779	0.000762939	
1.74469	0.110474	0.000610352	
1.74347	0.110779	0.000305176	
1.74316	0.110779	0.000610352	
1.74347	0.110779	0.000305176	
1.74377	0.110779	0.000457764	
1.74316	0.114441	0	
1.74286	0.115051	0.000762939	
1.74347	0.115051	0	
1.74255	0.115662	0.000762939	
1.7395	0.115356	0.000305176	
1.7392	0.115356	0.000457764	
1.73767	0.115356	0.000305176	
1.73828	0.114746	0.000457764	
1.73859	0.115662	0.000457764	
1.73767	0.115356	0.000457764	
1.73828	0.114746	0.000152588	
1.73767	0.118408	0.00106812	
1.73828	0.120239	0	
1.73737	0.12085	0.000305176	
1.73492	0.12085	0.000152588	
1.7337	0.119934	0.000305176	
1.73309	0.120239	0.000457764	
1.7337	0.119629	0.000152588	
1.73279	0.120544	0.000457764	
1.73309	0.119934	0.000457764	
1.73401	0.120544	0	
1.7334	0.120544	0.00106812	
1.73248	0.120239	0.000457764	
1.72943	0.123596	0.000915527	
1.72821	0.124817	0.000457764	
1.72791	0.125122	0.000305176	
1.7276	0.125122	0.000152588	
1.72791	0.125122	0	
1.72852	0.125427	0.000152588	
1.72852	0.124817	0.000305176	
1.72821	0.125122	-0.000152588	
1.7276	0.125732	0.000915527	
1.72516	0.125732	0.000305176	
1.72394	0.125122	0.000762939	
1.72394	0.124512	0.000610352	
1.72333	0.126038	0.000762939	
1.72363	0.128174	0.000457764	
1.72363	0.129395	0.000457764	
1.72363	0.1297	0.000915527	
1.72363	0.130005	0.000152588	
1.72333	0.1297	-0.000305176	
1.72241	0.130615	0.000915527	
1.72058	0.130615	0.000152588	
1.71906	0.130005	0.000915527	
1.71875	0.13031	0.000305176	
1.71814	0.13031	0.000305176	
1.71844	0.130615	0.000915527	
1.71814	0.13092	0.000915527	
1.71844	0.133057	0.000457764	
1.71906	0.134583	0.000457764	
1.71722	0.134888	0	
1.7157	0.135193	0.00106812	
1.71417	0.135193	0.000305176	
1.71295	0.135193	0.000305176	
1.71326	0.135193	0.000152588	
1.71387	0.135193	0.000305176	
1.71356	0.134888	0.000457764	
1.71417	0.134888	0.000610352	
1.71326	0.134888	0.000457764	
1.71295	0.134888	0.000457764	
1.71082	0.135498	0.000152588	
1.70929	0.137939	0.00106812	
1.70837	0.139465	0	
1.70837	0.140076	0.000762939	
1.70898	0.140381	0.000457764	
1.70898	0.139465	0.000610352	
1.70959	0.140686	0.000305176	
1.70959	0.140076	0.000152588	
1.70898	0.140076	0.000152588	
1.70776	0.140076	0.000457764	
1.70563	0.139465	-0.000152588	
1.7038	0.140076	0.00106812	
1.7038	0.139465	0.000305176	
1.7041	0.140381	0.000762939	
1.7038	0.143433	0.000610352	
1.7038	0.144348	0.000305176	
1.70441	0.145874	0.000610352	
1.7038	0.145264	0.000152588	
1.7041	0.144958	0.000762939	
1.7038	0.144958	0.000457764	
1.70044	0.144958	-0.000457764	
1.69922	0.145264	0.000762939	
1.69769	0.145264	-0.000152588	
1.69891	0.145874	0.000610352	
1.69891	0.144653	0.000152588	
1.69952	0.144653	0.000152588	
1.69922	0.145264	0.000457764	
1.69861	0.148315	0.000762939	
1.69769	0.150146	0.000610352	
1.69556	0.150146	0.000457764	
1.69373	0.149841	0	
1.69403	0.150146	0.000915527	
1.69373	0.149536	0.000305176	
1.69434	0.150146	0.000610352	
1.69495	0.149841	0.000457764	
1.69434	0.150757	0.000305176	
1.69373	0.150452	0.000610352	
1.69373	0.150452	0.000305176	
1.69342	0.149536	0.000152588	
1.69098	0.153503	0.000915527	
1.68915	0.154114	0.000152588	
1.68884	0.155029	0.000762939	
1.68854	0.154724	0	
1.68945	0.154724	0.000457764	
1.68945	0.155029	0.000610352	
1.68854	0.154419	0.000305176	
1.68884	0.154724	0.000457764	
1.68854	0.154724	0	
1.6861	0.154724	0.000305176	
1.68427	0.154419	0.000305176	
1.68457	0.154419	-0.000305176	
1.68365	0.15564	0.000762939	
1.68396	0.157166	0	
1.68396	0.159302	0.000610352	
1.68427	0.159302	0.000762939	
1.68427	0.159302	0.000305176	
1.68396	0.160217	0.000305176	
1.68304	0.159302	0.000457764	
1.68121	0.159302	0.000305176	
1.67877	0.159302	0.000305176	
1.67908	0.159302	-0.000152588	
1.67969	0.159607	0.000762939	
1.67877	0.159607	0.000152588	
1.67969	0.159607	0.000305176	
1.67908	0.159607	0.000457764	
1.67908	0.159912	0.000762939	
1.67938	0.162354	0.000457764	
1.67908	0.163879	0.000915527	
1.67542	0.163879	0.000762939	
1.6745	0.16449	0.000762939	
1.67419	0.16449	0	
1.67389	0.163574	0.000915527	
1.67358	0.163879	0.000305176	
1.6745	0.16449	0.000610352	
1.67419	0.16449	0.000152588	
1.67358	0.163879	0.000457764	
1.67328	0.16449	0.000305176	
1.67053	0.164795	0.000152588	
1.66962	0.164185	0.000305176	
1.6684	0.163879	0.000610352	
1.66901	0.167236	0.000305176	
1.66901	0.168762	0.00106812	
1.66962	0.169678	0.000305176	
1.66901	0.169067	0.000457764	
1.66901	0.169373	0.000762939	
1.6687	0.168762	0.000305176	
1.6687	0.169678	0.000457764	
1.66595	0.169067	0	
1.66443	0.169067	0.000305176	
1.66412	0.168762	0.000152588	
1.66382	0.168762	-0.000305176	
1.66351	0.169373	0.000915527	
1.66412	0.169678	-0.000152588	
1.66443	0.169373	0.000610352	
1.66443	0.172424	0.000457764	
1.66382	0.173035	0.000610352	
1.66107	0.17395	0.000457764	
1.65924	0.174866	0.000457764	
1.65863	0.173645	0.000305176	
1.65955	0.174255	0.000305176	
1.65863	0.174255	-0.000152588	
1.65955	0.174561	0.000915527	
1.65894	0.174561	0.000152588	
1.65863	0.174561	0.000610352	
1.65924	0.174255	0.000305176	
1.65833	0.174561	0.000305176	
1.65588	0.174561	0.000610352	
1.65466	0.174255	0.000762939	
1.65436	0.174561	0.000457764	
1.65436	0.174866	0.000457764	
1.65405	0.176392	0	
1.65436	0.179138	0.000762939	
1.65405	0.179443	0.000762939	
1.65436	0.179138	0.000305176	
1.65375	0.179138	0.000152588	
1.65131	0.178833	0.000610352	
1.64978	0.178528	0.000305176	
1.64978	0.178833	0.000305176	
1.64917	0.179443	0.000457764	
1.64917	0.179443	0.000610352	
1.64917	0.179138	0	
1.64948	0.179443	0.0012207	
1.64917	0.179138	0.000152588	
1.64978	0.179138	0.00106812	
1.64886	0.179443	0.000762939	
1.64581	0.178528	0.000762939	
1.64429	0.18219	0.000305176	
1.64398	0.184021	-0.000152588	
1.64368	0.184326	0.000152588	
1.64459	0.183716	0.000457764	
1.64398	0.183411	-0.000152588	
1.6449	0.183716	0.000610352	
1.64459	0.184021	0.000305176	
1.64429	0.183716	0.000915527	
1.64185	0.184326	0.000305176	
1.64001	0.183716	0.000610352	
1.64001	0.184326	0.000457764	
1.6394	0.184631	0.000457764	
1.6394	0.184021	0.000610352	
1.63971	0.183716	0.000305176	
1.63971	0.184326	-0.000152588	
1.64001	0.184021	0.000762939	
1.6391	0.184021	-0.000152588	
1.63605	0.184631	0.000610352	
1.63483	0.187988	0.000305176	
1.63422	0.188599	0.000152588	
1.63422	0.188904	0.000457764	
1.63483	0.188599	0.000457764	
1.63452	0.188904	0.000762939	
1.63452	0.188904	0.000762939	
1.63452	0.189209	0.000152588	
1.63452	0.189209	0.0012207	
1.63391	0.188904	0.000305176	
1.63116	0.188599	0.000457764	
1.62994	0.188904	0.000305176	
1.62994	0.189209	0.000152588	
1.62964	0.188599	0.000152588	
1.62994	0.188904	0.000305176	
1.62994	0.188599	0.000610352	
1.62994	0.188904	0.000915527	
1.62994	0.189514	0.000152588	
1.62842	0.187988	0.00106812	
1.62628	0.188599	0.000305176	
1.62537	0.189209	0.000762939	
1.62445	0.19165	0.000457764	
1.62445	0.193481	0.000305176	
1.62476	0.193481	0.000305176	
1.62415	0.193787	-0.000152588	
1.62445	0.194092	0.000152588	
1.62445	0.194092	0.000457764	
1.62445	0.194092	0	
1.6214	0.193787	0.000915527	
1.61926	0.193787	0	
1.61926	0.193787	0.000762939	
1.62048	0.193481	0.000762939	
1.61957	0.193176	0.000610352	
1.61987	0.194092	0.000457764	
1.61987	0.194397	0.000457764	
1.61987	0.193481	0.000305176	
1.61987	0.194397	0.000457764	
1.61926	0.193481	-0.000305176	
1.61743	0.193787	0.00106812	
1.61469	0.193176	0	
1.61407	0.193176	0.000610352	
1.61499	0.194702	0.000457764	
1.61469	0.196838	0.000305176	
1.61499	0.198059	0.000305176	
1.61499	0.19928	0.000610352	
1.61469	0.198975	0.000762939	
1.61438	0.198975	0.000610352	
1.61133	0.198669	0.000305176	
1.6098	0.198975	0.00106812	
1.60919	0.198669	0.000305176	
1.6098	0.198975	0.000457764	
1.6095	0.198669	0.000305176	
1.6095	0.19928	0.000152588	
1.61011	0.198059	0.000610352	
1.61041	0.198975	0.000457764	
1.60919	0.198364	0.000610352	
1.60614	0.198975	0.000305176	
1.60522	0.198669	0.000305176	
1.60492	0.19928	0.000915527	
1.60492	0.198669	0	
1.60522	0.198669	0.000762939	
1.60492	0.199585	0.000457764	
1.60461	0.198669	0.000915527	
1.60522	0.198364	0.000457764	
1.60492	0.19928	0.000152588	
1.60461	0.199585	0.000457764	
1.60187	0.202026	0.000610352	
1.60034	0.203857	-0.000305176	
1.60004	0.203857	0.000915527	
1.60004	0.203552	0	
1.59973	0.203857	0.000762939	
1.60034	0.204468	0.000762939	
1.60034	0.204163	0.000457764	
1.60004	0.203552	0.000305176	
1.60004	0.203247	0.000457764	
1.59637	0.204163	0.000610352	
1.59546	0.203857	0.000305176	
1.59546	0.203552	-0.000152588	
1.59546	0.203857	0.000915527	
1.59485	0.203552	0.000152588	
1.59515	0.204163	0.000762939	
1.59454	0.203247	0.000305176	
1.59485	0.202942	0.000610352	
1.59485	0.203247	0.000457764	
1.5918	0.204468	0.000610352	
1.59058	0.204468	0.000915527	
1.59027	0.203552	0.000610352	
1.58966	0.203857	-0.000152588	
1.58936	0.203857	0.000915527	
1.58997	0.203552	0.000457764	
1.59058	0.204163	0.000762939	
1.58997	0.203552	0.000152588	
1.58997	0.203857	0	
1.58966	0.206909	0.000457764	
1.58691	0.20874	0.000762939	
1.58569	0.20874	0.000305176	
1.58508	0.20813	0.000762939	
1.58447	0.20874	0	
1.58478	0.20813	0.0012207	
1.58478	0.20874	0.000305176	
1.58569	0.20874	0.000762939	
1.58478	0.20874	0.000610352	
1.58478	0.209045	0.000457764	
1.58234	0.20874	0.000457764	
1.58081	0.20813	0	
1.5802	0.20874	0.000305176	
1.5802	0.20874	0.000152588	
1.58051	0.208435	-0.000152588	
1.58081	0.20874	0.00137329	
1.58051	0.20874	0.000305176	
1.5799	0.208435	0.000457764	
1.57959	0.208435	0.000762939	
1.5799	0.20874	0.000610352	
1.5802	0.207825	0.000305176	
1.5799	0.208435	0.000915527	
1.57959	0.208435	0.000762939	
1.57684	0.20813	0.000457764	
1.57471	0.20874	-0.000152588	
1.57501	0.20813	0.000915527	
1.57532	0.209045	0.000457764	
1.57532	0.20813	0.000305176	
1.57593	0.20874	0.000305176	
1.57562	0.20874	0.000305176	
1.57471	0.20752	0.000305176	
1.57501	0.207825	0.00106812	
1.57532	0.20813	0.000610352	
1.57196	0.20874	0.000457764	
1.57043	0.20874	0	
1.57043	0.211487	0.000762939	
1.56982	0.213013	0.000305176	
1.56952	0.213928	0.000762939	
1.56982	0.213928	0.000305176	
1.57013	0.213013	0.000305176	
1.57043	0.213623	0	
1.56952	0.214233	0.000915527	
1.56677	0.213928	0.000152588	
1.56525	0.213928	0.000762939	
1.56586	0.213623	0	
1.56464	0.213623	0.00106812	
1.56494	0.213623	0.000305176	
1.56433	0.213623	0.000457764	
1.56525	0.213623	0.000457764	
1.56555	0.213928	0.000457764	
1.56494	0.213928	0	
1.56219	0.213928	0.000305176	
1.56128	0.213318	0.000152588	
1.55975	0.213318	0.000457764	
1.56006	0.213623	0	
1.56036	0.213318	0.000610352	
1.56128	0.213318	0.000610352	
1.56067	0.213623	0.000305176	
1.56097	0.213928	0.000305176	
1.56036	0.213318	0.000305176	
1.55762	0.213013	0.000457764	
1.55579	0.213623	0.000457764	
1.55548	0.213623	0.000457764	
1.55518	0.213318	0.000457764	
1.55518	0.213318	-0.000305176	
1.55548	0.214233	0.000610352	
1.55609	0.213318	0.000152588	
1.55609	0.213318	0.000305176	
1.55487	0.213623	0.000152588	
1.55212	0.213013	0.000305176	
1.5509	0.214233	0.000305176	
1.55121	0.213318	0.000915527	
1.55121	0.213623	0.000610352	
1.55121	0.212708	0.000610352	
1.5509	0.213623	0	
1.5509	0.213623	0.000762939	
1.55121	0.213623	0.000457764	
1.5509	0.213928	0.000457764	
1.54755	0.213623	0.000305176	
1.54633	0.213928	0.000610352	
1.54633	0.213928	0.000152588	
1.54541	0.213623	0.000457764	
1.54602	0.213623	0.000457764	
1.54602	0.213928	0.000457764	
1.54602	0.213623	0	
1.54663	0.213623	0.00137329	
1.54541	0.213318	0.000305176	
1.54175	0.212708	0.000457764	
1.54144	0.213623	0.000457764	
1.54083	0.213318	0.000610352	
1.54053	0.213623	0.000152588	
1.54144	0.213928	0.000610352	
1.54053	0.213318	0.000152588	
1.54114	0.213013	0.000610352	
1.54022	0.213318	-0.000305176	
1.53931	0.213318	0.000915527	
1.53778	0.213623	0.000305176	
1.53595	0.213623	0.000457764	
1.53595	0.213623	0.000610352	
1.53656	0.213623	0.000457764	
1.53625	0.213318	0.000152588	
1.53564	0.213623	0.000457764	
1.53625	0.213623	0	
1.53534	0.213623	0.000457764	
1.53503	0.213928	-0.000610352	
1.53259	0.213928	0.000762939	
1.53107	0.212402	0.000457764	
1.53168	0.213623	0.000457764	
1.53137	0.213318	0.000457764	
1.53076	0.214233	0.000305176	
1.53107	0.213623	0.000457764	
1.53137	0.213318	0.000762939	
1.53076	0.213623	0.000457764	
1.53046	0.213318	0.000610352	
1.52679	0.213623	0	
1.52679	0.213318	0.00106812	
1.52588	0.213623	0.000305176	
1.52649	0.214233	0.000152588	
1.52649	0.213318	0.000305176	
1.52588	0.213318	0.000457764	
1.52557	0.213318	0.000305176	
1.52588	0.213623	0.000305176	
1.52527	0.213623	0.000457764	
1.52252	0.213318	0.000610352	
1.52191	0.210266	0.000152588	
1.5213	0.208435	0.00106812	
1.5213	0.20874	0.000915527	
1.5213	0.20813	0.000610352	
1.52161	0.20874	0.000457764	
1.5213	0.209045	0.000762939	
1.52069	0.209351	0	
1.52069	0.20874	0.000152588	
1.51672	0.20813	0.000152588	
1.51672	0.20813	0.000305176	
1.51642	0.208435	0	
1.51672	0.20874	0.00106812	
1.51672	0.208435	0.000610352	
1.51581	0.20874	0.000457764	
1.51611	0.208435	0.000610352	
1.51581	0.209045	0.000610352	
1.51276	0.208435	0	
1.51123	0.20874	0.000610352	
1.51184	0.208435	0.000610352	
1.51062	0.208435	0.000610352	
1.51154	0.208435	-0.000152588	
1.51093	0.207825	0.00137329	
1.51123	0.20813	0.000457764	
1.51093	0.208435	0.000305176	
1.51123	0.209045	0.000305176	
1.50787	0.209045	0.000152588	
1.50665	0.208435	0.000457764	
1.50696	0.20813	0.00106812	
1.50604	0.20874	0.000915527	
1.50635	0.209045	0.000305176	
1.50635	0.209045	0.000457764	
1.50635	0.208435	0.00106812	
1.50574	0.208435	0.000305176	
1.50543	0.208435	0.000457764	
1.50269	0.20874	0.000457764	
1.50177	0.20752	0.000152588	
1.50116	0.208435	-0.000152588	
1.50085	0.20874	0.000610352	
1.50116	0.208435	0.000305176	
1.50146	0.20874	0.000457764	
1.50116	0.20813	0.000305176	
1.50177	0.205688	0.000915527	
1.50116	0.203857	0.000610352	
1.49811	0.203552	0.000610352	
1.49689	0.203247	0.000762939	
1.49597	0.203552	0.000610352	
1.49597	0.203552	0	
1.49658	0.203552	0.000305176	
1.49658	0.203552	0.000457764	
1.49628	0.203247	0.000457764	
1.49597	0.203552	-0.000152588	
1.49261	0.203552	0.000915527	
1.49231	0.203857	0.000305176	
1.49139	0.203552	0.000762939	
1.49139	0.203552	0.000457764	
1.4917	0.203552	0.000305176	
1.49109	0.204163	0.000152588	
1.49109	0.204163	0.000762939	
1.4917	0.203552	0.000457764	
1.49109	0.203857	0.000305176	
1.48804	0.203552	-0.000305176	
1.48651	0.203857	0.000915527	
1.48651	0.203857	0.000457764	
1.48621	0.203247	0.000457764	
1.48682	0.203552	0.000610352	
1.48621	0.203247	0.000457764	
1.48651	0.203857	0.000152588	
1.48651	0.203552	0.00137329	
1.48621	0.203552	0.000762939	
1.48315	0.203247	0.000610352	
1.48254	0.203552	-0.000152588	
1.48193	0.203857	0.000762939	
1.48163	0.203857	0.000457764	
1.48193	0.203247	0.000457764	
1.48163	0.203247	0.000305176	
1.48102	0.203552	0.000457764	
1.48224	0.203857	-0.000152588	
1.48102	0.200806	0.000457764	
1.47827	0.198669	0.000457764	
1.47736	0.198669	0.000305176	
1.47705	0.198669	0	
1.47644	0.198364	0.000915527	
1.47705	0.198975	0.000457764	
1.47736	0.198669	0.000610352	
1.47675	0.198669	0.000305176	
1.47675	0.198364	0.000457764	
1.47644	0.198364	0	
1.47308	0.19928	0.000152588	
1.47156	0.198975	0	
1.47217	0.198669	0.000457764	
1.47186	0.198364	0.000152588	
1.47186	0.198975	0.00106812	
1.47217	0.198059	0.000305176	
1.47186	0.198364	0.000762939	
1.47156	0.198364	0.000457764	
1.47156	0.198669	0.000762939	
1.46881	0.198669	0	
1.4679	0.198364	0.000305176	
1.46698	0.19928	0.000610352	
1.46637	0.198975	0.000457764	
1.46637	0.198975	-0.000152588	
1.46667	0.198669	0.000610352	
1.46637	0.198669	0.000305176	
1.46667	0.198669	0.000457764	
1.46332	0.198669	0.000152588	
1.46179	0.198669	0.000457764	
1.4621	0.198975	0.000305176	
1.4621	0.198975	0.0012207	
1.46179	0.198669	0.000762939	
1.46149	0.198059	0.000610352	
1.46118	0.19928	-0.000152588	
1.4621	0.199585	0.000915527	
1.46149	0.198364	0.000457764	
1.45874	0.198669	0.000457764	
1.45782	0.198669	0.000610352	
1.4566	0.198364	0.000305176	
1.45721	0.198975	0.000152588	
1.4566	0.198364	0.000762939	
1.45721	0.198975	0.000457764	
1.45721	0.198669	0.000457764	
1.45691	0.198975	0.000610352	
1.45691	0.195923	0.00137329	
1.4566	0.193787	0.000457764	
1.45325	0.193787	0.000457764	
1.45233	0.193787	0.000915527	
1.45203	0.193176	0.000457764	
1.45233	0.193481	0	
1.45203	0.193481	0.000305176	
1.45203	0.194397	0.000152588	
1.45142	0.193787	0.000152588	
1.45172	0.193787	-0.000152588	
1.45203	0.193787	0.000915527	
1.44867	0.193787	0.000457764	
1.44745	0.193787	0.000610352	
1.44684	0.194397	0.000610352	
1.44714	0.194092	0.000305176	
1.44684	0.194092	0.000305176	
1.44653	0.194092	0.000915527	
1.44684	0.193787	0.000152588	
1.44653	0.193176	0.000305176	
1.44745	0.193481	-0.000152588	
1.44409	0.193787	0.000915527	
1.44226	0.193481	0.000305176	
1.44287	0.193481	0.000762939	
1.44287	0.193176	0.000457764	
1.44226	0.193176	0.000457764	
1.44257	0.194092	0.000305176	
1.44257	0.194397	0.00106812	
1.44226	0.194092	0.000457764	
1.44165	0.193787	0.000457764	
1.43829	0.193481	0.000152588	
1.43738	0.194092	0.00106812	
1.43738	0.194092	0.000610352	
1.43738	0.194397	0.000305176	
1.43707	0.193787	0.000610352	
1.43768	0.194092	0.000457764	
1.43677	0.194092	0	
1.43738	0.194092	0.000915527	
1.43677	0.193481	0.000457764	
1.43433	0.194092	0.000457764	
1.4325	0.194092	0.000457764	
1.4325	0.193481	0.00106812	
1.4325	0.193787	0.000305176	
1.43219	0.193481	0.000610352	
1.43219	0.193787	0.000610352	
1.43219	0.193787	0.000762939	
1.43188	0.193481	0	
1.43188	0.194397	0.000457764	
1.42883	0.192566	0.000457764	
1.42761	0.194092	0.000152588	
1.42731	0.193481	0	
1.42761	0.194092	0.00106812	
1.42731	0.193787	0.000762939	
1.42731	0.194092	0.000457764	
1.427	0.193787	0.000610352	
1.42792	0.193787	0.000610352	
1.427	0.194092	0.000305176	
1.4267	0.193787	0.000762939	
1.42426	0.19104	0.000915527	
1.42303	0.188904	0.000457764	
1.42212	0.188293	-0.000305176	
1.42242	0.189209	0.000762939	
1.42242	0.188599	0.000610352	
1.42242	0.188904	0.000305176	
1.42242	0.188904	0.000305176	
1.42273	0.188293	0.000457764	
1.42212	0.189209	0.000457764	
1.41907	0.189209	0.000762939	
1.41785	0.188599	0.000915527	
1.41754	0.188599	0.000762939	
1.41754	0.188904	0	
1.41693	0.188904	0.000610352	
1.41785	0.188599	0.000457764	
1.41815	0.188904	0.000305176	
1.41754	0.189209	0.000457764	
1.41663	0.188904	0.000610352	
1.41449	0.189209	0	
1.41327	0.188599	0.000610352	
1.41205	0.189514	0.000305176	
1.41266	0.189209	0.000457764	
1.41296	0.188904	0.000305176	
1.41266	0.188599	0.000915527	
1.41235	0.188904	0.000610352	
1.41235	0.188904	0.000610352	
1.41205	0.189209	0.000457764	
1.41205	0.188904	0.000457764	
1.40991	0.188904	0	
1.40778	0.188904	0.000457764	
1.40778	0.188599	0.000152588	
1.40747	0.188599	0.000152588	
1.40778	0.188904	-0.000305176	
1.40717	0.188293	0.000762939	
1.40808	0.189209	0.000457764	
1.40717	0.188599	0.000915527	
1.40747	0.188904	0.000457764	
1.40442	0.188904	0.000610352	
1.4032	0.188904	0	
1.4032	0.188904	0.000762939	
1.4035	0.189209	0.000457764	
1.40259	0.188904	0.000305176	
1.40289	0.188599	0	
1.4035	0.189209	0.00106812	
1.4032	0.188293	0.000457764	
1.40259	0.188599	0.000152588	
1.39954	0.188599	0.000305176	
1.39832	0.188293	0.000305176	
1.39771	0.188599	0.000457764	
1.39771	0.188293	0.0012207	
1.39832	0.189514	0.000915527	
1.3974	0.188904	0.000762939	
1.39801	0.188904	0.000305176	
1.39801	0.188293	0.000762939	
1.39801	0.187988	0.000610352	
1.39526	0.189514	0.000152588	
1.39343	0.189514	0.000610352	
1.39282	0.188293	0.000457764	
1.39282	0.185547	-0.000152588	
1.39343	0.184021	0.000305176	
1.39252	0.184021	0.000457764	
1.39282	0.183716	0.000610352	
1.39343	0.183411	0.000152588	
1.39282	0.183411	0.00106812	
1.39038	0.184021	0.000457764	
1.38824	0.183716	0.000610352	
1.38885	0.183716	0.000610352	
1.38794	0.184021	0.000457764	
1.38794	0.184021	0	
1.38824	0.184021	0.000152588	
1.38794	0.183716	0	
1.38794	0.183716	0.000305176	
1.38794	0.184021	-0.000457764	
1.38458	0.184021	0.000915527	
1.38367	0.183716	0.000610352	
1.38275	0.184021	0.000457764	
1.38336	0.183716	0.000610352	
1.38336	0.183716	0.000457764	
1.38306	0.184021	0.000305176	
1.38336	0.184326	0.000762939	
1.38306	0.184021	0.000152588	
1.38214	0.184326	0.000457764	
1.38	0.184021	-0.000152588	
1.37848	0.184021	0.000762939	
1.37848	0.183411	0.000457764	
1.37817	0.183716	0.000457764	
1.37878	0.183716	0.000610352	
1.37848	0.184326	0.000457764	
1.37787	0.184021	0.000152588	
1.37787	0.184021	0.000915527	
1.37482	0.183716	0.000610352	
1.3739	0.184021	0.000305176	
1.37329	0.183716	0.000305176	
1.37299	0.184021	0.00106812	
1.3736	0.183411	0.000457764	
1.37329	0.184326	0.000305176	
1.3739	0.183716	0.000305176	
1.3736	0.183716	0.000152588	
1.37329	0.184326	0.000152588	
1.36993	0.183716	0.000762939	
1.36871	0.183716	0.000457764	
1.36841	0.184021	0.000610352	
1.36902	0.184326	0	
1.3681	0.183716	0.000915527	
1.3678	0.184021	0.000762939	
1.36871	0.183716	0.000305176	
1.3681	0.183411	0.000610352	
1.36505	0.183716	0.000610352	
1.36353	0.184326	0	
1.36353	0.184021	0.000457764	
1.36292	0.184021	0.000152588	
1.36322	0.184021	0.000305176	
1.36261	0.184326	-0.000152588	
1.36322	0.183716	0.00106812	
1.36322	0.184326	0.000152588	
1.36261	0.187378	0.000915527	
1.35925	0.188293	0.000457764	
1.35864	0.188599	0.000610352	
1.35803	0.189819	0	
1.35834	0.189209	0.000610352	
1.35834	0.188599	0.000762939	
1.35864	0.189514	0.000305176	
1.35803	0.188599	-0.000152588	
1.35742	0.189209	0.0012207	
1.35498	0.188599	0.000152588	
1.35345	0.188293	0.000305176	
1.35406	0.188904	0.000305176	
1.35315	0.188599	0.000305176	
1.35345	0.188293	0.000305176	
1.35345	0.188904	0.00137329	
1.35376	0.189209	0.000610352	
1.35315	0.188904	0.000762939	
1.34979	0.188904	0	
1.34888	0.188904	0.00106812	
1.34827	0.191956	0.000305176	
1.34827	0.193481	0.000152588	
1.34857	0.194092	0.000610352	
1.34857	0.194397	0.000457764	
1.34796	0.193787	0.000152588	
1.34766	0.193176	0.000457764	
1.34552	0.193787	0.000305176	
1.3443	0.193787	0.000762939	
1.34308	0.194092	0.000152588	
1.34308	0.193481	0.00106812	
1.34338	0.194092	0.000457764	
1.34308	0.197144	0.000762939	
1.34369	0.198059	0.000457764	
1.34277	0.198669	0.000610352	
1.34033	0.198669	0.000305176	
1.33911	0.198975	0.000457764	
1.33911	0.198669	0.000457764	
1.33881	0.198059	0.000457764	
1.33881	0.198975	0	
1.3385	0.19928	0.000915527	
1.3385	0.201721	0.000457764	
1.3382	0.203247	0.000610352	
1.33514	0.204163	0.000610352	
1.33423	0.203247	0.000457764	
1.33423	0.203552	0.000152588	
1.33331	0.202942	0.000610352	
1.33484	0.203857	0.000152588	
1.33331	0.206909	0.000305176	
1.33331	0.209045	-0.000305176	
1.33331	0.209351	0.000915527	
1.33026	0.209045	0.000762939	
1.32904	0.20874	0.000457764	
1.32904	0.208435	0.000305176	
1.32874	0.211792	0.000457764	
1.32904	0.213013	0.000305176	
1.32843	0.213928	0.00106812	
1.32904	0.213318	0.000915527	
1.32813	0.213623	0.000152588	
1.32599	0.213318	0	
1.32416	0.216675	0.00106812	
1.32416	0.217896	0.000762939	
1.32385	0.218506	0.000152588	
1.32385	0.218506	0.000152588	
1.32416	0.218201	0.000152588	
1.32355	0.218201	0.000152588	
1.32385	0.221252	0.000305176	
1.32111	0.222473	0.000305176	
1.31897	0.223389	0.000152588	
1.31897	0.223694	0.000457764	
1.31897	0.223999	0.0012207	
1.31927	0.227051	0.000610352	
1.31897	0.227661	0.000457764	
1.31866	0.228271	0.000457764	
1.31897	0.228271	0.000152588	
1.31561	0.231018	0.000305176	
1.315	0.232544	0.000305176	
1.31409	0.233154	0.000457764	
1.31409	0.233459	0.000457764	
1.3147	0.233154	-0.000305176	
1.31378	0.236206	0.000915527	
1.31439	0.237427	0.000610352	
1.31348	0.238037	0.000610352	
1.31073	0.238342	0.000457764	
1.30981	0.241394	0.000457764	
1.3089	0.242004	0	
1.30951	0.243225	0.000305176	
1.3089	0.24231	0.000610352	
1.3092	0.243225	0.000457764	
1.30951	0.246277	-0.000152588	
1.30798	0.247803	0.000915527	
1.30676	0.247803	0.000457764	
1.30463	0.247803	0.000457764	
1.30402	0.250854	0.000305176	
1.30402	0.252686	0.000305176	
1.30402	0.25238	0	
1.30463	0.252686	0.000915527	
1.30402	0.256042	0.000610352	
1.30035	0.257874	0.000457764	
1.29913	0.257568	0	
1.29913	0.257568	0.0012207	
1.30005	0.260315	0.000457764	
1.29913	0.261536	0.000457764	
1.29974	0.263062	0.000610352	
1.29883	0.265503	0.000305176	
1.29883	0.267029	0.000152588	
1.29547	0.267029	0.000610352	
1.29486	0.267334	0.000457764	
1.29425	0.270996	0.000457764	
1.29333	0.272217	0	
1.29364	0.272522	0.000915527	
1.29425	0.272217	0.000305176	
1.29425	0.275574	0.000457764	
1.29395	0.278015	0.000610352	
1.29059	0.2771	0.000457764	
1.28967	0.2771	0.000152588	
1.28967	0.280151	0.000457764	
1.28906	0.281982	0	
1.28967	0.282288	0.000305176	
1.28937	0.285034	0.000152588	
1.28937	0.28717	0.000610352	
1.28906	0.287476	0.000457764	
1.28632	0.288086	0.000762939	
1.2851	0.290527	0.000457764	
1.28479	0.291748	0.000305176	
1.28479	0.291138	0.000305176	
1.28448	0.292053	0.000762939	
1.28448	0.296021	0.000305176	
1.28479	0.296631	0.000305176	
1.28326	0.296631	0	
1.28052	0.299988	0.000457764	
1.27991	0.301208	0	
1.2793	0.302124	0.000457764	
1.2796	0.301819	0.000152588	
1.27991	0.304565	0.000610352	
1.2796	0.306702	0.000305176	
1.28052	0.306702	0.000762939	
1.27869	0.306702	0.000915527	
1.27686	0.310059	0.000305176	
1.27533	0.310974	0	
1.27411	0.31189	0.00137329	
1.27441	0.311584	0.000762939	
1.27411	0.314331	0.000457764	
1.27411	0.316162	0.000152588	
1.27441	0.315857	0.000915527	
1.27411	0.319519	0.000152588	
1.27136	0.32074	0.000305176	
1.26984	0.32135	0.000152588	
1.27014	0.321655	0.000762939	
1.27014	0.323486	0.000305176	
1.26923	0.325928	0.000610352	
1.26984	0.326538	0.000305176	
1.26953	0.325928	0.000305176	
1.26953	0.329285	0.000610352	
1.26617	0.330505	0.000457764	
1.26526	0.331116	0.000305176	
1.26465	0.330811	0.000610352	
1.26465	0.334167	0.000305176	
1.26434	0.335999	0.000152588	
1.26434	0.336304	0	
1.26526	0.335999	0.00106812	
1.26343	0.33905	0.000457764	
1.2616	0.340881	0.000305176	
1.26007	0.340271	0.000152588	
1.26007	0.340881	0.000762939	
1.25977	0.343933	0.000305176	
1.25977	0.345764	0.000762939	
1.26038	0.345764	0.000610352	
1.25977	0.345764	0.000610352	
1.25885	0.346069	-0.000305176	
1.25641	0.348511	0.000762939	
1.25519	0.350342	0.000457764	
1.25519	0.350037	0.000610352	
1.25427	0.351563	0.000610352	
1.25519	0.354309	0.000305176	
1.25488	0.355225	0.000305176	
1.25397	0.35614	0.000915527	
1.25488	0.35614	0.000610352	
1.25183	0.355225	0.000762939	
1.25031	0.358582	0.000305176	
1.24969	0.360718	0.000915527	
1.25	0.359802	0.000305176	
1.24969	0.360718	0.000457764	
1.25	0.361023	0.000762939	
1.25	0.364075	0.000152588	
1.24969	0.365601	0.000152588	
1.24939	0.365906	0.000915527	
1.24634	0.365601	0.000305176	
1.24542	0.36499	0.000457764	
1.24512	0.36499	0.000152588	
1.24512	0.368652	0.00106812	
1.24573	0.369873	0.000610352	
1.24542	0.371094	0.000305176	
1.24512	0.370789	0.000762939	
1.2442	0.370483	0.000305176	
1.24176	0.374146	0	
1.23993	0.375061	0.000152588	
1.24054	0.375061	0.000152588	
1.24023	0.375061	0.000457764	
1.23962	0.374756	-0.000305176	
1.24054	0.375366	0.000762939	
1.24054	0.375061	0.000457764	
1.24054	0.378723	0.000610352	
1.23962	0.379944	0.000762939	
1.23749	0.379639	0.000762939	
1.23535	0.379639	-0.000152588	
1.23596	0.380249	0.000762939	
1.23596	0.380554	0.000610352	
1.23535	0.380249	0.000305176	
1.23535	0.382996	-0.000152588	
1.23566	0.385132	0.000305176	
1.23474	0.385742	0.000457764	
1.23199	0.384827	0.000610352	
1.23047	0.385132	0.000305176	
1.23077	0.384827	0.000305176	
1.23108	0.384521	0.000152588	
1.23047	0.385437	0.00106812	
1.23016	0.387573	0.000610352	
1.23077	0.389709	0.000457764	
1.22986	0.390625	0	
1.23047	0.390015	0.00106812	
1.22681	0.390015	0.000762939	
1.22559	0.389709	0.000305176	
1.22528	0.389709	0.000305176	
1.22589	0.389709	0.000305176	
1.22528	0.389404	0.000152588	
1.22559	0.390015	0.000305176	
1.22528	0.392761	0.000152588	
1.22559	0.394897	0.000457764	
1.22467	0.394287	0.000152588	
1.22223	0.395203	0.000915527	
1.22101	0.395508	0.000305176	
1.22101	0.394287	0.000610352	
1.22009	0.394592	0.000152588	
1.2204	0.395203	0.000457764	
1.2204	0.394287	0.000305176	
1.22101	0.394897	0.000305176	
1.2207	0.395203	0.000305176	
1.21918	0.394592	0.000152588	
1.21704	0.394592	0	
1.21552	0.395508	0.000915527	
1.2149	0.394592	0.000305176	
1.21613	0.394592	0.000457764	
1.21552	0.394897	0.000762939	
1.21582	0.397949	0.000457764	
1.21582	0.399475	0.000305176	
1.21582	0.39978	0.000457764	
1.21521	0.399475	0.000610352	
1.21216	0.400085	0.000915527	
1.21124	0.39978	-0.000152588	
1.21033	0.39978	0.00106812	
1.21033	0.39978	0.000610352	
1.21063	0.39917	0	
1.21063	0.399475	0.000305176	
1.21094	0.399475	0.000305176	
1.21094	0.39917	0	
1.21094	0.39978	0.000915527	
1.20911	0.39978	0.000610352	
1.20789	0.400085	0.000457764	
1.20575	0.399475	-0.000152588	
1.20544	0.39978	0.000915527	
1.20544	0.400085	0.000610352	
1.20544	0.400391	0.000305176	
1.20575	0.400085	0	
1.20605	0.400085	0.000457764	
1.20514	0.399475	0.000152588	
1.20514	0.39978	0.000762939	
1.20483	0.399475	0.000152588	
1.20178	0.400696	0.000305176	
1.20117	0.39978	0.000762939	
1.20026	0.39978	0.000762939	
1.20056	0.39917	0.000305176	
1.20117	0.399475	0.000915527	
1.20148	0.39917	0.000457764	
1.20026	0.39917	0.000457764	
1.20117	0.399475	0	
1.20117	0.39917	0.000610352	
1.19995	0.396118	0.000457764	
1.19751	0.394897	0.000762939	
1.19537	0.395203	-0.000305176	
1.19537	0.394592	0.000915527	
1.19568	0.395203	0.000305176	
1.19629	0.394897	0.000610352	
1.19537	0.394897	0.000762939	
1.19537	0.394897	0.000915527	
1.19598	0.394897	0.000305176	
1.19568	0.395203	0.000762939	
1.19568	0.394897	0.000457764	
1.19568	0.395203	0.000457764	
1.19232	0.394592	0	
1.19171	0.395203	0.00106812	
1.1908	0.394897	0.000305176	
1.19019	0.394897	0.000305176	
1.1911	0.394897	0.000457764	
1.19049	0.394592	0.000457764	
1.19141	0.395203	0	
1.1908	0.392456	0.00106812	
1.19049	0.39093	0.000457764	
1.19019	0.389709	0.000305176	
1.19049	0.389404	0.000305176	
1.18988	0.39032	0.00106812	
1.18744	0.390015	0.000457764	
1.18652	0.39032	0.000152588	
1.1853	0.390625	0.000305176	
1.18652	0.390625	0.000305176	
1.18561	0.390625	0	
1.18561	0.390015	0.000457764	
1.1853	0.390625	0.000457764	
1.18561	0.39032	0.000457764	
1.185	0.386658	0	
1.1853	0.386047	0.00106812	
1.18652	0.385437	0.000457764	
1.18591	0.384827	0.000610352	
1.18225	0.385132	0.000457764	
1.18134	0.385742	0.000610352	
1.18195	0.384827	0.000305176	
1.18103	0.385742	0.000152588	
1.18164	0.384521	0.000152588	
1.18103	0.384827	0.000305176	
1.18042	0.384216	-0.000152588	
1.18073	0.38208	0.000915527	
1.18073	0.381165	0.000457764	
1.18073	0.379944	0.000610352	
1.18073	0.380859	0.000915527	
1.18073	0.380859	0.000457764	
1.18073	0.380859	0.000152588	
1.18103	0.380249	0.000915527	
1.18073	0.380249	0.000457764	
1.17737	0.379944	0.000305176	
1.17676	0.380249	0	
1.17523	0.377502	0.000915527	
1.17493	0.375977	0.000457764	
1.17584	0.375366	0.000457764	
1.17615	0.375671	0	
1.17584	0.375061	0.000305176	
1.17676	0.375671	0.000152588	
1.17645	0.375366	0.00106812	
1.17584	0.375061	0.000762939	
1.17554	0.374756	0.000305176	
1.17554	0.372009	0.000152588	
1.17645	0.372009	0.0012207	
1.17584	0.369568	0.000457764	
1.17615	0.370178	0.000457764	
1.17645	0.371094	0.000305176	
1.17584	0.369873	0.000152588	
1.17523	0.370178	0.000305176	
1.17249	0.370178	0.000762939	
1.17126	0.366821	0.000457764	
1.17157	0.366516	0.000305176	
1.17096	0.365295	0.000457764	
1.17065	0.365601	0.00106812	
1.17188	0.365601	0.000457764	
1.17188	0.365601	0.000457764	
1.17126	0.366211	0.000152588	
1.17065	0.364685	0.000305176	
1.17126	0.365906	0	
1.17096	0.362549	0.000305176	
1.17126	0.360718	0	
1.17035	0.360718	0.000305176	
1.17126	0.360107	-0.000152588	
1.17126	0.360107	0.000762939	
1.17157	0.360718	0.000152588	
1.17188	0.360107	0.000457764	
1.17126	0.360413	0.000610352	
1.17096	0.357361	0.000610352	
1.17065	0.355835	0.000305176	
1.17065	0.355835	0.000457764	
1.17096	0.35614	0.000610352	
1.17126	0.35553	0.000305176	
1.17096	0.355835	-0.000152588	
1.17126	0.355225	0.000762939	
1.17126	0.355225	0.000305176	
1.17096	0.352173	0.000152588	
1.16821	0.350647	0.000152588	
1.16669	0.350342	0.000457764	
1.16547	0.350647	0.000152588	
1.16608	0.350342	0.000915527	
1.16608	0.350647	0.000762939	
1.16669	0.351563	0.000457764	
1.16608	0.350342	0.000305176	
1.16577	0.3479	0.000915527	
1.16577	0.345764	0.000305176	
1.16577	0.346069	0.000305176	
1.16608	0.345764	0.000610352	
1.16547	0.345154	0.000305176	
1.16608	0.345459	0	
1.16699	0.345459	0.000457764	
1.16547	0.343323	0.000305176	
1.16638	0.340881	0.000457764	
1.16638	0.341187	0.000152588	
1.16608	0.340271	0.00106812	
1.16638	0.340576	0.000457764	
1.16669	0.340576	0.000305176	
1.16608	0.340881	0.000457764	
1.16638	0.340271	0.000610352	
1.16638	0.33783	0.000152588	
1.16669	0.335388	0.000305176	
1.16669	0.335388	0.000457764	
1.16577	0.335999	0.000610352	
1.16638	0.335693	-0.000152588	
1.16638	0.336304	0.000762939	
1.16638	0.335693	0.000152588	
1.16608	0.332336	0.000457764	
1.16577	0.331116	0.000915527	
1.16638	0.331116	0.000762939	
1.16638	0.330811	0	
1.16669	0.331421	0.000610352	
1.16638	0.330505	0.000305176	
1.16669	0.331116	0.000305176	
1.16669	0.330505	-0.000152588	
1.16638	0.328369	0.000610352	
1.16669	0.325928	0.000305176	
1.16638	0.326233	-0.000152588	
1.16638	0.326233	0.000305176	
1.16608	0.326233	0	
1.16577	0.325623	0.000457764	
1.16699	0.326233	0.000915527	
1.16577	0.323486	0.000610352	
1.16608	0.32135	0.000305176	
1.16638	0.32074	0.000152588	
1.16669	0.321045	0.0012207	
1.16547	0.321045	0.000610352	
1.16577	0.321045	0.000457764	
1.16699	0.321045	0.000305176	
1.16699	0.318298	0.000305176	
1.16699	0.316772	0.000305176	
1.16974	0.316162	0.000762939	
1.17035	0.316467	0.000610352	
1.17126	0.316467	0.000457764	
1.17126	0.316162	0	
1.17126	0.316467	0.00106812	
1.17126	0.313416	0.000457764	
1.17035	0.311584	0.000457764	
1.17065	0.312195	0.000457764	
1.17096	0.31189	0.000152588	
1.17096	0.310974	0.000610352	
1.17126	0.31189	0.000610352	
1.17096	0.311279	0.000457764	
1.17065	0.31189	0.000457764	
1.17126	0.308533	0	
1.17096	0.307617	0.000610352	
1.17096	0.306702	0.000305176	
1.17035	0.306702	0.000610352	
1.17126	0.306396	0.000457764	
1.17126	0.306396	0.000457764	
1.17126	0.306702	0.000305176	
1.17126	0.303955	0.000762939	
1.17096	0.30304	0.000610352	
1.17126	0.301819	0.000457764	
1.17126	0.302124	0	
1.17065	0.302429	0.000762939	
1.17126	0.301819	0.000457764	
1.17188	0.298767	0.000457764	
1.17493	0.298157	0.000457764	
1.17584	0.296936	0.000457764	
1.17584	0.296631	0	
1.17615	0.296631	0.000915527	
1.17615	0.297241	0.000610352	
1.17615	0.296631	0.000305176	
1.17645	0.294189	0.000305176	
1.17584	0.292358	0.000915527	
1.17645	0.291443	0.000457764	
1.17584	0.291138	0.000457764	
1.17584	0.292358	0	
1.17554	0.291748	0.000152588	
1.17645	0.291748	0.000305176	
1.17554	0.289307	0.000762939	
1.17615	0.28717	0	
1.17584	0.28717	0.000152588	
1.17676	0.287476	0.000457764	
1.17889	0.286865	0.00106812	
1.18103	0.28656	0.000610352	
1.18164	0.286865	0.000762939	
1.18134	0.284119	0.000915527	
1.18042	0.281982	0.000610352	
1.18042	0.281372	0.000305176	
1.18103	0.282898	0.000457764	
1.18103	0.282288	0.000152588	
1.18073	0.281982	0.000152588	
1.18073	0.281982	0	
1.18042	0.279541	0.000762939	
1.18073	0.278015	0.000762939	
1.18042	0.2771	0.000305176	
1.18164	0.2771	0.000610352	
1.18439	0.276489	0.000305176	
1.18591	0.2771	0.000152588	
1.18561	0.2771	0.000610352	
1.18622	0.274048	0.000457764	
1.18561	0.272827	0.000152588	
1.18622	0.272217	-0.000305176	
1.18591	0.272217	0.000762939	
1.18591	0.272217	0.000305176	
1.18591	0.272217	0.000152588	
1.18622	0.271301	0.000152588	
1.18591	0.269775	0.000305176	
1.18683	0.267334	0.000305176	
1.18927	0.267944	0.00106812	
1.19019	0.267029	0.000610352	
1.19019	0.266724	0.000610352	
1.19049	0.267029	0	
1.19049	0.264282	0.0012207	
1.1908	0.263367	0.000610352	
1.1908	0.262146	0.000305176	
1.1908	0.262451	0.000305176	
1.19049	0.262146	0.000152588	
1.19019	0.262756	0	
1.19415	0.262451	0.000762939	
1.19507	0.259094	0.000457764	
1.19507	0.258484	0.000457764	
1.19507	0.257568	0.000152588	
1.19537	0.258179	0.00106812	
1.19568	0.257874	0.000305176	
1.19629	0.257874	0.000152588	
1.19537	0.258179	0.000915527	
1.19629	0.255127	0.000457764	
1.19873	0.25238	0.000305176	
1.20026	0.252686	0.000457764	
1.20026	0.25238	0	
