model_ppg1.acq
0.5 msec/sample
3 channels
RSP, X, RSPEC-R
Volts
PPG, X, PPGED-R
Volts
ECG, Y, RSPEC-R
mV
CH1	CH2	CH13	
259565	259565	259565	
3.02032	0.276489	0.000305176	
3.02002	0.277405	0.000152588	
3.02063	0.274353	0.000610352	
3.01941	0.273438	0.000152588	
3.01666	0.272217	0.000457764	
3.01605	0.272522	0.000457764	
3.01575	0.270386	0.000915527	
3.01453	0.267944	0.000457764	
3.01147	0.267639	0.000457764	
3.01147	0.267639	0.000457764	
3.01117	0.265503	0.000762939	
3.00934	0.262756	0.000305176	
3.0072	0.262146	0.000305176	
3.00598	0.262451	0.000152588	
3.00537	0.262146	0.000305176	
3.00446	0.260925	0.000457764	
3.00171	0.257568	0.000152588	
3.0014	0.257263	0.000457764	
3.00079	0.257874	0.000305176	
2.99957	0.255737	0.000915527	
2.99683	0.253601	0.000457764	
2.99652	0.252686	0.000305176	
2.99683	0.252991	0.000457764	
2.99622	0.253296	0.000610352	
2.99469	0.250549	0.000457764	
2.99194	0.248108	0.000305176	
2.99103	0.247803	0.000305176	
2.99133	0.247803	0.000457764	
2.9895	0.245972	0.000457764	
2.98676	0.244141	0.000457764	
2.98645	0.242615	0.000457764	
2.98584	0.242615	0.000305176	
2.98431	0.240479	0.000610352	
2.98279	0.238953	0.000762939	
2.98096	0.237427	0.000457764	
2.98126	0.237732	0.000457764	
2.98126	0.238037	0.000762939	
2.98035	0.235901	0.000457764	
2.97729	0.234375	0.000457764	
2.97607	0.233459	0.000152588	
2.97638	0.233154	0.000610352	
2.97485	0.231018	0.000152588	
2.9718	0.228882	0.000305176	
2.97119	0.228882	0.000457764	
2.97089	0.228577	0.000610352	
2.97119	0.22644	0.000457764	
2.9715	0.223389	0.000610352	
2.9715	0.222778	0.000457764	
2.97089	0.222778	0.000762939	
2.96997	0.221863	0.000152588	
2.96722	0.218811	0.000610352	
2.96692	0.218201	0.000305176	
2.96631	0.217896	0.000305176	
2.96509	0.218201	0.000152588	
2.96265	0.216675	0.000305176	
2.96112	0.214233	0.000762939	
2.96204	0.213013	0.000305176	
2.9599	0.213318	0.000457764	
2.95746	0.211487	0.000457764	
2.95654	0.209045	0.000457764	
2.95685	0.20874	0.000610352	
2.95715	0.20874	0.000762939	
2.95502	0.206604	0.000305176	
2.95288	0.204468	0.000457764	
2.95197	0.203552	0.000152588	
2.95135	0.203552	0.000457764	
2.95105	0.201416	0.000457764	
2.95013	0.198975	0.000457764	
2.948	0.198059	0.000305176	
2.94708	0.19928	0.000457764	
2.94647	0.198975	0.000457764	
2.94556	0.197144	0.000152588	
2.94312	0.194092	0.000610352	
2.94159	0.193481	0.000915527	
2.94159	0.193481	0.000762939	
2.94098	0.191956	0.000457764	
2.94067	0.189819	0.000457764	
2.93793	0.188904	0.000305176	
2.93732	0.189209	0.000305176	
2.93671	0.186768	0.000457764	
2.93549	0.184326	0	
2.93304	0.183716	0.000305176	
2.93213	0.184326	0.000305176	
2.93152	0.18158	0.000457764	
2.93152	0.179749	0.000152588	
2.93091	0.179749	0.000457764	
2.92755	0.179749	0.000610352	
2.92725	0.178833	0.000305176	
2.92725	0.176392	0.000610352	
2.92694	0.175476	0.000305176	
2.92572	0.174255	0.000610352	
2.92328	0.174561	0.000457764	
2.92236	0.172424	0	
2.92236	0.169373	0.000305176	
2.92023	0.168762	0.000457764	
2.91809	0.169678	0.000457764	
2.91718	0.167542	0.000457764	
2.91687	0.16449	0.000457764	
2.91748	0.164185	0.000762939	
2.91534	0.164795	0.000610352	
2.9126	0.161743	0.000610352	
2.91199	0.160217	0.000305176	
2.91229	0.158997	0.000457764	
2.91168	0.159607	0.000762939	
2.91077	0.159302	0.000457764	
2.90802	0.156555	0.000305176	
2.90771	0.155029	0.000152588	
2.90741	0.154724	0.000305176	
2.90771	0.154724	0.000305176	
2.90588	0.152893	0	
2.90344	0.151062	0.000610352	
2.90192	0.149841	0.000305176	
2.90222	0.149536	0.000762939	
2.90192	0.1474	0.000762939	
2.901	0.145264	0.000305176	
2.89825	0.144348	0.000305176	
2.89825	0.144653	0.000457764	
2.89703	0.143433	0.000457764	
2.89734	0.141296	0.000610352	
2.89581	0.140076	0.000305176	
2.89337	0.140381	0.000305176	
2.89154	0.139771	0.000152588	
2.89246	0.137634	0.000152588	
2.89215	0.135498	0.000457764	
2.89093	0.134583	0.000152588	
2.88849	0.135193	0.000762939	
2.88818	0.133362	0.000610352	
2.88757	0.13092	0.000610352	
2.88635	0.129395	0.000305176	
2.88391	0.129089	0.000305176	
2.8833	0.127869	0.000915527	
2.88239	0.126038	0.000457764	
2.88239	0.125427	0.000152588	
2.88208	0.125122	0	
2.88116	0.125427	0	
2.87811	0.123901	0.000457764	
2.87781	0.120544	0.000457764	
2.8775	0.12085	0.000305176	
2.8772	0.119934	0.000610352	
2.87567	0.119019	0.000915527	
2.87384	0.116272	0.000610352	
2.87323	0.115967	0.000762939	
2.87231	0.114746	0.000457764	
2.87231	0.115662	0.000762939	
2.87109	0.11322	0.000152588	
2.86835	0.110779	0.000457764	
2.86804	0.109863	0.000305176	
2.86774	0.110474	0	
2.86743	0.108032	0.000457764	
2.8653	0.105896	0	
2.86438	0.106201	0.000457764	
2.86255	0.105591	0.000457764	
2.86316	0.105591	0.000305176	
2.86255	0.103455	0.000610352	
2.86072	0.100708	0.000457764	
2.85858	0.100403	0.000457764	
2.85767	0.101013	0.000457764	
2.85767	0.100098	0.000762939	
2.85828	0.0985718	0.000457764	
2.85614	0.0964355	0.000457764	
2.85431	0.0961304	0.000152588	
2.85309	0.0952148	0.000152588	
2.85278	0.093689	0.000305176	
2.85278	0.0912476	0.000457764	
2.85278	0.0906372	0.000305176	
2.85248	0.090332	0.000762939	
2.85248	0.0909424	0.00106812	
2.85217	0.0894165	0.000610352	
2.85156	0.0866699	0.000457764	
2.84912	0.0866699	0.000610352	
2.84821	0.0866699	0.000457764	
2.84821	0.0860596	0.000457764	
2.8476	0.0842285	0.000152588	
2.84607	0.0808716	0.000457764	
2.84393	0.0805664	0.000305176	
2.84302	0.0811768	0.000457764	
2.84302	0.0808716	0.000610352	
2.84271	0.0796509	0.000457764	
2.84271	0.0784302	0.000762939	
2.8418	0.0769043	0.000457764	
2.83844	0.0775146	0.000305176	
2.83844	0.0765991	0.000305176	
2.83752	0.0744629	0.000305176	
2.83875	0.0726318	0.000610352	
2.83691	0.0723267	0.000457764	
2.83386	0.0720215	0.000305176	
2.83295	0.0720215	0.000152588	
2.83325	0.0692749	0	
2.83264	0.067749	0.000305176	
2.83356	0.0674438	0.000457764	
2.83112	0.0668335	0	
2.82928	0.0668335	0	
2.82776	0.0668335	0.000762939	
2.82776	0.0643921	0.000762939	
2.82806	0.0634766	0.000457764	
2.82623	0.062561	0.000457764	
2.8241	0.0619507	0.000915527	
2.82288	0.062561	0.000457764	
2.82318	0.0601196	0.000457764	
2.82349	0.0576782	0.000152588	
2.82288	0.0570679	0.000152588	
2.82166	0.057373	0.000305176	
2.81952	0.0576782	0.000305176	
2.81769	0.0570679	0.000152588	
2.8183	0.0561523	0.000610352	
2.8183	0.0524902	0.000152588	
2.8183	0.0521851	0.000610352	
2.81677	0.0518799	0.000305176	
2.81403	0.0524902	0.000305176	
2.81403	0.0524902	0.000152588	
2.81281	0.050354	0.000610352	
2.8125	0.0482178	0.000610352	
2.81219	0.0469971	0.000152588	
2.80975	0.0473022	0.000305176	
2.80853	0.0476074	0.000305176	
2.80823	0.0466919	0.000610352	
2.80792	0.0442505	0.000152588	
2.80884	0.0430298	0.000152588	
2.80701	0.0427246	0.000610352	
2.80487	0.0424194	0.000762939	
2.80426	0.0427246	0.000457764	
2.80396	0.0436401	0.000305176	
2.80365	0.0405884	0.000152588	
2.80396	0.038147	0.000457764	
2.80151	0.0378418	0.000457764	
2.79999	0.0375366	0.000610352	
2.79877	0.0378418	0	
2.79877	0.0378418	0.000305176	
2.79846	0.0357056	0.000762939	
2.79877	0.0326538	0.000457764	
2.79724	0.032959	0.000457764	
2.79541	0.0320435	0.000152588	
2.79449	0.0323486	0.000457764	
2.7948	0.0332642	0.000762939	
2.79449	0.0326538	0.000610352	
2.79358	0.0308228	0.000152588	
2.79297	0.0286865	0.000610352	
2.78961	0.0274658	0.000457764	
2.789	0.0271606	0.000610352	
2.789	0.0274658	0	
2.78839	0.027771	0	
2.789	0.027771	0.000305176	
2.789	0.0256348	0.000457764	
2.78717	0.0238037	0.000457764	
2.78503	0.0231934	0.000610352	
2.78381	0.0231934	0.000457764	
2.78381	0.022583	0.000457764	
2.78473	0.0228882	0.000305176	
2.78412	0.022583	0.000610352	
2.78168	0.0231934	0.000457764	
2.78015	0.020752	0.000305176	
2.77924	0.0186157	0.000152588	
2.77863	0.0177002	0.000152588	
2.77954	0.017395	0.000152588	
2.77893	0.0180054	0.000305176	
2.77771	0.0180054	0.000457764	
2.77527	0.0183105	0.000457764	
2.77374	0.017395	0.000152588	
2.77374	0.015564	0.000457764	
2.77374	0.0143433	0.000457764	
2.77374	0.0128174	0.000305176	
2.77435	0.0134277	0.000610352	
2.77252	0.0131226	0.000305176	
2.77008	0.0131226	0.000610352	
2.76886	0.0134277	0.000457764	
2.76855	0.0128174	0.000457764	
2.76855	0.0106812	0	
2.76917	0.00854492	0.000457764	
2.76794	0.00854492	0.000305176	
2.76459	0.00793457	0.000152588	
2.76398	0.00823975	0.000610352	
2.76367	0.00793457	0.000610352	
2.76367	0.00823975	0.000305176	
2.76398	0.00793457	0.000610352	
2.76367	0.0088501	0.000610352	
2.76276	0.00579834	0.000457764	
2.7597	0.00335693	0.000610352	
2.75909	0.00305176	0	
2.75848	0.00305176	0.000457764	
2.7597	0.00305176	0.000152588	
2.75909	0.00244141	0.000457764	
2.75909	0.00274658	0.000305176	
2.75757	0.00335693	0.000305176	
2.75513	0.00274658	0.000305176	
2.75391	0.00244141	0.000305176	
2.75482	0.00152588	0.000457764	
2.75391	-0.000915527	0.000610352	
2.75421	-0.00152588	0.000152588	
2.75452	-0.00152588	0.000762939	
2.75299	-0.00152588	0.000457764	
2.74963	-0.00183105	0.000457764	
2.74902	-0.000915527	0.000610352	
2.74902	-0.00183105	0.000152588	
2.74902	-0.00183105	0	
2.74933	-0.000915527	0.000457764	
2.74902	-0.00335693	0.000305176	
2.74811	-0.00579834	0.000457764	
2.74506	-0.00640869	0.000152588	
2.74384	-0.00640869	0.000457764	
2.74414	-0.00671387	0.000457764	
2.74384	-0.00640869	0.000762939	
2.74353	-0.00640869	0.000457764	
2.74445	-0.00610352	0.000457764	
2.74323	-0.00610352	0.000610352	
2.74017	-0.00640869	0.000457764	
2.73926	-0.00640869	0.000457764	
2.73956	-0.00823975	0.000305176	
2.73926	-0.0106812	0.000610352	
2.73956	-0.0112915	0.000457764	
2.73926	-0.0109863	0.000152588	
2.73956	-0.0109863	0.000610352	
2.73773	-0.0112915	0.000762939	
2.73529	-0.0106812	0.000457764	
2.73438	-0.0112915	0.000915527	
2.73468	-0.0109863	0.000610352	
2.73407	-0.0106812	0.000305176	
2.73407	-0.0115967	0.000610352	
2.73529	-0.0112915	0.000457764	
2.73468	-0.0128174	0.000305176	
2.73376	-0.0161743	0	
2.73438	-0.0164795	0.000457764	
2.73163	-0.0164795	0.000152588	
2.72705	-0.0164795	0.000305176	
2.72461	-0.0164795	0.000305176	
2.72461	-0.0164795	0.000610352	
2.72461	-0.0158691	0.000762939	
2.72461	-0.0161743	0.000457764	
2.72278	-0.0164795	0.000457764	
2.72095	-0.0167847	0.000610352	
2.71973	-0.0158691	0.000305176	
2.72003	-0.0164795	0.000457764	
2.71942	-0.0183105	0.000762939	
2.72003	-0.0213623	0.000457764	
2.71973	-0.0213623	0.000152588	
2.71942	-0.0213623	0.000457764	
2.71881	-0.0216675	0.000457764	
2.71576	-0.0204468	0.000305176	
2.71454	-0.0216675	0.000305176	
2.71515	-0.0210571	0.000305176	
2.71515	-0.0210571	0.000610352	
2.71454	-0.0210571	0.000610352	
2.71484	-0.0213623	0.000305176	
2.71484	-0.0213623	0.000457764	
2.71332	-0.0210571	0.000457764	
2.71057	-0.0231934	0.000305176	
2.70996	-0.0256348	0.000610352	
2.70966	-0.0265503	0.000305176	
2.70935	-0.0262451	0.000610352	
2.70905	-0.0265503	0.000915527	
2.70996	-0.0259399	0.000152588	
2.70935	-0.0259399	0.000152588	
2.70996	-0.0256348	0.000457764	
2.70966	-0.0262451	0.000610352	
2.70935	-0.0259399	0.000915527	
2.70813	-0.0256348	0.000610352	
2.70569	-0.0250244	0.000305176	
2.70477	-0.0262451	0.000457764	
2.70416	-0.0262451	0.000762939	
2.70416	-0.0280762	0.000457764	
2.70477	-0.0305176	0.000152588	
2.70538	-0.0305176	0.000457764	
2.70447	-0.0314331	0.000305176	
2.70477	-0.0305176	0.000457764	
2.70355	-0.0314331	0.000305176	
2.7005	-0.0308228	0.000305176	
2.69958	-0.0308228	0.000457764	
2.69958	-0.0314331	0.000305176	
2.69989	-0.0311279	0.000457764	
2.69958	-0.0311279	0.000305176	
2.69989	-0.0311279	0.000457764	
2.7002	-0.0311279	0.000457764	
2.69928	-0.0332642	0.000457764	
2.69836	-0.0354004	0.000152588	
2.69562	-0.0360107	0.000457764	
2.69501	-0.0357056	0.000457764	
2.6947	-0.0360107	0.000152588	
2.6944	-0.0354004	0.000457764	
2.69501	-0.0357056	0.000457764	
2.6947	-0.0357056	0.000457764	
2.6944	-0.0360107	0.000610352	
2.6947	-0.0354004	0.000610352	
2.69348	-0.0360107	0.000610352	
2.69135	-0.0366211	0.000305176	
2.68951	-0.0363159	0.000457764	
2.69043	-0.0357056	0.000762939	
2.68951	-0.0384521	0.000152588	
2.68951	-0.0405884	0.000457764	
2.68921	-0.0408936	0.000305176	
2.68951	-0.0405884	0.000305176	
2.68982	-0.0411987	0.000152588	
2.68951	-0.0402832	0.000610352	
2.6889	-0.0405884	0.000305176	
2.68585	-0.0402832	0.000610352	
2.68494	-0.0405884	0.000457764	
2.68524	-0.0411987	0.000762939	
2.68524	-0.0411987	0.000457764	
2.68494	-0.0408936	0.000762939	
2.68494	-0.039978	0.000305176	
2.68494	-0.0430298	0.000305176	
2.68555	-0.045166	0.000152588	
2.68555	-0.0460815	0.000457764	
2.68372	-0.0454712	0.000457764	
2.68097	-0.0460815	0.000457764	
2.68005	-0.045166	0.000152588	
2.68005	-0.0454712	0.000762939	
2.68005	-0.0460815	0.000457764	
2.67975	-0.0463867	0.000915527	
2.67975	-0.0457764	0.000610352	
2.68005	-0.0454712	0.000762939	
2.68036	-0.0457764	0.000610352	
2.68005	-0.045166	0.000457764	
2.67914	-0.0460815	0.000457764	
2.67609	-0.0476074	0	
2.67487	-0.0494385	0.000152588	
2.67487	-0.0509644	0.000305176	
2.67517	-0.050354	0.000305176	
2.67578	-0.0506592	0.000457764	
2.67487	-0.0509644	0.000305176	
2.67578	-0.050354	0.000457764	
2.67487	-0.0506592	0.000457764	
2.67487	-0.0506592	0.000762939	
2.67517	-0.0509644	0.000610352	
2.67517	-0.050354	0.000305176	
2.67334	-0.0509644	0.000610352	
2.67059	-0.0506592	0.000305176	
2.6709	-0.0524902	0.000305176	
2.67029	-0.055542	0.000305176	
2.66998	-0.0552368	0.000305176	
2.67029	-0.0552368	0.000305176	
2.67029	-0.0558472	0.000305176	
2.67029	-0.055542	0.000152588	
2.66998	-0.0552368	0.000610352	
2.67029	-0.0558472	0.000305176	
2.67029	-0.0558472	0.000610352	
2.67059	-0.0552368	0.000305176	
2.66846	-0.0552368	0.000457764	
2.66663	-0.055542	0.000305176	
2.66541	-0.055542	0.000305176	
2.66479	-0.057373	0.000152588	
2.66571	-0.0604248	0.000457764	
2.66541	-0.0598145	0.000305176	
2.66449	-0.06073	0.000457764	
2.6651	-0.0610352	0	
2.6651	-0.06073	0.000305176	
2.66479	-0.0604248	0.000457764	
2.6651	-0.0604248	0.000610352	
2.6651	-0.06073	0.000610352	
2.66541	-0.0601196	0.000305176	
2.66388	-0.0604248	0.000457764	
2.66205	-0.06073	0.000152588	
2.66052	-0.0622559	0.000152588	
2.66022	-0.0646973	0.000152588	
2.65991	-0.0653076	0.000305176	
2.65991	-0.0656128	0.000152588	
2.66052	-0.0656128	0.000762939	
2.65961	-0.0653076	0.000762939	
2.65961	-0.0650024	0.000457764	
2.66052	-0.0650024	0.000762939	
2.66083	-0.0653076	0.000457764	
2.65991	-0.0653076	0.000762939	
2.66022	-0.0653076	0.000915527	
2.65961	-0.0653076	0.000457764	
2.66052	-0.0656128	0.000152588	
2.659	-0.0674438	0.000457764	
2.65717	-0.0698853	0.000762939	
2.65625	-0.0698853	0.000305176	
2.65503	-0.0704956	0	
2.65564	-0.0704956	0.000610352	
2.65472	-0.0708008	0.000610352	
2.65503	-0.0704956	0.000305176	
2.65533	-0.0695801	0.000305176	
2.65503	-0.0701904	0.000305176	
2.65533	-0.0698853	0.000762939	
2.65533	-0.0708008	0.000915527	
2.65564	-0.0698853	0.000457764	
2.65564	-0.0720215	0.000610352	
2.65564	-0.0747681	0.000610352	
2.65594	-0.0750732	0.000457764	
2.65564	-0.0750732	0.000305176	
2.65625	-0.0750732	0.000457764	
2.65594	-0.0753784	0	
2.65442	-0.0753784	0.000457764	
2.65167	-0.0753784	0.000152588	
2.65015	-0.0750732	0	
2.65045	-0.0756836	0.000305176	
2.64984	-0.0747681	0.000762939	
2.64984	-0.0756836	0.000762939	
2.65015	-0.0769043	0.000305176	
2.65015	-0.0793457	0.000610352	
2.65076	-0.0793457	0.000457764	
2.65045	-0.0805664	0.000457764	
2.65015	-0.0799561	0.000305176	
2.64984	-0.0799561	0.000152588	
2.65015	-0.0802612	0.000305176	
2.65076	-0.0796509	0.000457764	
2.65015	-0.0802612	0.000457764	
2.65106	-0.0796509	0.000152588	
2.65045	-0.0802612	0.000610352	
2.65045	-0.0796509	0.000610352	
2.65076	-0.0823975	0.000457764	
2.64984	-0.0839233	0.000610352	
2.65015	-0.0848389	0.000457764	
2.65015	-0.0848389	0.000305176	
2.65015	-0.0845337	0.000610352	
2.65045	-0.0854492	0.000610352	
2.64893	-0.0848389	0.000152588	
2.64648	-0.0854492	0.000152588	
2.64648	-0.0854492	0.000457764	
2.64526	-0.0848389	0.000457764	
2.64557	-0.0848389	0.000457764	
2.64557	-0.085144	0.000152588	
2.64587	-0.0866699	0.000305176	
2.64618	-0.0888062	0.000762939	
2.64557	-0.0900269	0.000915527	
2.64557	-0.0900269	0.000762939	
2.64526	-0.0897217	0.000305176	
2.64587	-0.0894165	0.000457764	
2.64618	-0.0897217	0.000305176	
2.64587	-0.0897217	0.000152588	
2.64526	-0.0894165	0	
2.64587	-0.0897217	0.000305176	
2.64587	-0.0897217	0.000305176	
2.64618	-0.0897217	0.000305176	
2.64557	-0.090332	0.000305176	
2.64557	-0.0918579	0.000610352	
2.64557	-0.0939941	0.000457764	
2.64587	-0.0946045	0.000610352	
2.64587	-0.0946045	0.000610352	
2.64557	-0.0942993	0.000457764	
2.64587	-0.0942993	0.000457764	
2.64648	-0.0949097	0.000610352	
2.64526	-0.0939941	0.000915527	
2.64587	-0.0952148	0.000152588	
2.64526	-0.0946045	0.000152588	
2.64526	-0.0949097	0.000762939	
2.64587	-0.0952148	0.000305176	
2.64557	-0.0946045	0.000457764	
2.64557	-0.0967407	0.000457764	
2.64557	-0.0997925	0	
2.64526	-0.0994873	0.000457764	
2.64526	-0.0994873	0.000457764	
2.64587	-0.0994873	0.000305176	
2.64587	-0.0994873	0.000305176	
2.64557	-0.100403	0.000457764	
2.64587	-0.0994873	0.000610352	
2.64587	-0.100403	0.000610352	
2.64526	-0.0994873	0.000152588	
2.64557	-0.100403	0.000457764	
2.64526	-0.100098	0.000457764	
2.64557	-0.0994873	0.000457764	
2.64557	-0.101624	0.000305176	
2.64557	-0.104065	0.000152588	
2.64618	-0.10437	0.000762939	
2.64587	-0.10437	0.000457764	
2.64587	-0.10437	0.000457764	
2.64526	-0.10437	0.000762939	
2.64587	-0.10376	0.000457764	
2.64587	-0.10437	0	
2.64618	-0.10437	0.000305176	
2.64557	-0.10437	0.000152588	
2.64587	-0.104675	0.000610352	
2.64587	-0.104675	0.000305176	
2.64557	-0.10437	0	
2.64526	-0.105286	0.000152588	
2.64648	-0.106506	0.000305176	
2.64648	-0.108948	0.000915527	
2.64618	-0.109253	0.000610352	
2.64557	-0.109558	0.000762939	
2.64557	-0.110168	0.000610352	
2.64648	-0.109558	0.000305176	
2.64648	-0.109253	0.000457764	
2.64526	-0.109253	0.000457764	
2.64526	-0.109253	0.000457764	
2.64587	-0.109558	0.000152588	
2.64587	-0.109253	0.000152588	
2.64587	-0.109558	0.000305176	
2.64587	-0.109558	0.000457764	
2.64557	-0.109253	0.000610352	
2.64679	-0.111694	0.000762939	
2.64984	-0.112915	0.000610352	
2.65076	-0.114441	0.000915527	
2.64984	-0.114136	0.000457764	
2.65076	-0.114746	0.000457764	
2.65015	-0.114441	0.000610352	
2.65045	-0.114136	0.000762939	
2.65015	-0.114441	0.000305176	
2.65045	-0.114441	0.000305176	
2.65015	-0.113831	0.000457764	
2.65045	-0.114136	0.000457764	
2.64984	-0.114746	0.000457764	
2.65076	-0.114441	0.000610352	
2.65015	-0.114746	0.000610352	
2.65045	-0.114136	0.000915527	
2.65015	-0.116577	0.000915527	
2.65076	-0.118713	0.000152588	
2.65015	-0.118713	0.000762939	
2.65045	-0.119019	0.000457764	
2.65045	-0.119629	0	
2.65076	-0.118713	0.000152588	
2.65076	-0.119629	0.000457764	
2.65198	-0.119324	0.000305176	
2.65442	-0.119629	0.000305176	
2.65533	-0.119324	0.000305176	
2.65533	-0.119324	0.000457764	
2.65533	-0.119629	0.000305176	
2.65503	-0.118713	0.000915527	
2.65503	-0.119629	0.000305176	
2.65533	-0.119324	0.000457764	
2.65594	-0.119324	0.000610352	
2.65533	-0.121155	0.000762939	
2.65533	-0.123291	0.000457764	
2.65533	-0.124207	0.000610352	
2.65594	-0.123901	0.000152588	
2.65533	-0.124207	0.000305176	
2.65564	-0.123901	0.000152588	
2.65656	-0.124207	0.000152588	
2.65869	-0.124512	0.000457764	
2.65961	-0.124207	0.000305176	
2.66052	-0.123901	0.000915527	
2.66022	-0.124207	0.000610352	
2.65991	-0.124512	0.000762939	
2.66022	-0.124207	0.000457764	
2.66083	-0.124207	0.000610352	
2.66083	-0.124817	0.000610352	
2.65991	-0.124512	0.000762939	
2.66052	-0.124817	0.000457764	
2.66052	-0.124512	0.000152588	
2.66144	-0.126648	0.000152588	
2.66357	-0.129089	0.000152588	
2.66479	-0.129089	0.000610352	
2.6651	-0.129089	0.000457764	
2.66541	-0.129089	0.000610352	
2.6651	-0.127869	0.000762939	
2.66541	-0.129089	0.000762939	
2.66541	-0.1297	0.000457764	
2.6651	-0.128784	0.000305176	
2.66541	-0.129089	0.000305176	
2.66479	-0.128174	0.000152588	
2.66663	-0.1297	0.000305176	
2.66876	-0.128479	0.000152588	
2.66998	-0.129089	0.000305176	
2.66998	-0.129395	0.000610352	
2.67059	-0.128784	0.000610352	
2.66998	-0.129089	0.000305176	
2.6709	-0.129089	0.000457764	
2.67029	-0.130615	0.000457764	
2.67059	-0.133972	0.000762939	
2.66998	-0.134583	0.000305176	
2.67151	-0.133667	0.000457764	
2.67395	-0.133362	0.000915527	
2.67456	-0.134583	0.000915527	
2.67517	-0.134277	0.000457764	
2.67487	-0.134277	0	
2.67487	-0.134277	0.000457764	
2.67426	-0.133667	0.000305176	
2.67517	-0.134583	0.000457764	
2.67578	-0.134277	0.000305176	
2.67914	-0.133667	0.000305176	
2.67975	-0.134583	0.000915527	
2.67975	-0.133972	0.000762939	
2.68036	-0.133667	0.000457764	
2.67975	-0.133667	0.000305176	
2.67975	-0.134277	0.000457764	
2.68005	-0.133667	0.000762939	
2.68127	-0.133972	0.000305176	
2.68372	-0.136414	0.000457764	
2.68463	-0.13855	0.000305176	
2.68555	-0.13855	0.000305176	
2.68494	-0.13855	0.000305176	
2.68524	-0.13916	0.000305176	
2.68555	-0.138855	0.000457764	
2.68555	-0.138855	0.000152588	
2.68646	-0.13855	0.000762939	
2.6889	-0.13855	0.000915527	
2.68951	-0.138855	0.000610352	
2.68921	-0.13855	0.000610352	
2.68982	-0.13916	0.000457764	
2.68982	-0.138855	0.000457764	
2.68982	-0.138855	0.000305176	
2.69104	-0.138245	0	
2.69409	-0.138855	0.000152588	
2.6944	-0.13855	0.000305176	
2.69501	-0.138855	0.000305176	
2.69501	-0.13916	0.000152588	
2.69409	-0.138855	0.000457764	
2.6944	-0.138855	0.000457764	
2.69623	-0.140686	0.00106812	
2.69836	-0.143127	0.000305176	
2.7005	-0.144958	0.000457764	
2.69928	-0.144043	0.000762939	
2.70081	-0.144043	0.000915527	
2.69958	-0.144043	0.000457764	
2.70172	-0.144043	-0.000152588	
2.70386	-0.144348	0	
2.70416	-0.144043	0.000457764	
2.70508	-0.144043	0.000305176	
2.70477	-0.143433	0.000457764	
2.70447	-0.143738	0.000457764	
2.70538	-0.143433	0.000915527	
2.70905	-0.144043	0.000610352	
2.70935	-0.143433	0.000610352	
2.70996	-0.143738	0.000457764	
2.70966	-0.143738	0.000457764	
2.70996	-0.144043	0.000305176	
2.71118	-0.143433	0.000457764	
2.71393	-0.143738	0.000152588	
2.71423	-0.144043	0.000305176	
2.71484	-0.144043	0.000152588	
2.71454	-0.144043	0.000457764	
2.71393	-0.146179	0.000305176	
2.71637	-0.148621	0.000457764	
2.7182	-0.148621	0.000457764	
2.71973	-0.148926	0.000762939	
2.72034	-0.148621	0.000610352	
2.71912	-0.149231	0.000305176	
2.71973	-0.148926	0.000610352	
2.72064	-0.148315	0.000457764	
2.72308	-0.149231	0.000305176	
2.724	-0.14801	0.000305176	
2.72491	-0.148621	0.000610352	
2.7243	-0.148926	0.000305176	
2.72614	-0.148621	0.000610352	
2.72827	-0.148315	0.000152588	
2.72888	-0.148621	0.000305176	
2.72888	-0.148926	0.000152588	
2.7298	-0.148926	0.000762939	
2.73041	-0.149536	0.000915527	
2.73346	-0.148315	0.000152588	
2.73438	-0.149231	0.000762939	
2.73376	-0.148926	0.000457764	
2.73468	-0.148621	0.000762939	
2.7356	-0.148621	0.000152588	
2.73804	-0.148621	0.000152588	
2.73865	-0.149231	0.000305176	
2.73987	-0.148926	0.000610352	
2.73865	-0.150452	0.000305176	
2.73987	-0.152283	0.000152588	
2.74323	-0.153503	0.000457764	
2.74414	-0.153503	0.000762939	
2.74384	-0.153809	0.000457764	
2.74414	-0.153503	0.000762939	
2.74567	-0.153809	0.000457764	
2.74841	-0.153198	0.000610352	
2.74902	-0.153198	0.000457764	
2.74902	-0.153809	0.000610352	
2.74872	-0.154419	0.000152588	
2.75024	-0.153503	0.000457764	
2.75269	-0.153809	0.000152588	
2.75391	-0.153503	0.000762939	
2.75452	-0.153809	0.000305176	
2.75574	-0.152588	0	
2.75757	-0.153503	0.000762939	
2.75879	-0.153809	0.000610352	
2.75879	-0.153198	0.000762939	
2.7594	-0.154114	0.000457764	
2.76093	-0.153503	0.000610352	
2.76245	-0.153809	0.000305176	
2.76428	-0.153809	0.000305176	
2.76398	-0.153809	0.000457764	
2.7655	-0.153198	0.000305176	
2.76794	-0.153503	0.000457764	
2.76855	-0.153198	0.000457764	
2.76917	-0.153809	0	
2.76978	-0.153503	0.000457764	
2.77252	-0.15564	0.000457764	
2.77374	-0.158081	0.000457764	
2.77374	-0.158386	0.000610352	
2.77527	-0.158081	0.000305176	
2.77802	-0.158386	0.000610352	
2.77771	-0.158691	0.000457764	
2.77893	-0.157776	0.000457764	
2.78015	-0.158691	0.000305176	
2.78229	-0.158997	0	
2.7832	-0.158386	-0.000152588	
2.78351	-0.158691	0.000457764	
2.78442	-0.158081	0.000457764	
2.78778	-0.158691	0.000457764	
2.7887	-0.158691	0.000305176	
2.78839	-0.158997	0.000610352	
2.78961	-0.158081	0.000457764	
2.79205	-0.158081	0.000762939	
2.79327	-0.158997	0.000457764	
2.79358	-0.158997	0.000305176	
2.79449	-0.158081	0.000610352	
2.79785	-0.157776	0.000762939	
2.79877	-0.158386	0.000152588	
2.79938	-0.158081	0.000305176	
2.8009	-0.158386	0.000152588	
2.80182	-0.158081	0.000457764	
2.80273	-0.158691	0.000152588	
2.80334	-0.158691	0.000152588	
2.80487	-0.158081	0.000610352	
2.80701	-0.157776	0.000915527	
2.80853	-0.158081	0.000762939	
2.80853	-0.158386	0.000610352	
2.80945	-0.158081	0.000305176	
2.81189	-0.158997	0.000915527	
2.81281	-0.158691	0.000305176	
2.81494	-0.157471	0.000305176	
2.81708	-0.160828	0.000457764	
2.8183	-0.162964	0.000152588	
2.8186	-0.163269	0.000457764	
2.81952	-0.164185	0.000152588	
2.82257	-0.162659	0.000457764	
2.82257	-0.162659	0.000305176	
2.8244	-0.163269	0.000610352	
2.82745	-0.163269	0.000457764	
2.82806	-0.162964	0.000610352	
2.82776	-0.163269	0.000457764	
2.82928	-0.163269	0.000762939	
2.83203	-0.163574	0.000457764	
2.83295	-0.163269	0.000457764	
2.83478	-0.163879	0.000152588	
2.8363	-0.163574	0	
2.83783	-0.162964	0.000457764	
2.83813	-0.163574	0.000305176	
2.83905	-0.162354	0.000610352	
2.8421	-0.163574	0	
2.84302	-0.162964	0.000762939	
2.84485	-0.162964	0.000610352	
2.84607	-0.163269	0.000457764	
2.84821	-0.163269	0.000305176	
2.84912	-0.162354	0.000305176	
2.85217	-0.163269	0.000610352	
2.85217	-0.163269	0.000305176	
2.854	-0.163269	0.000762939	
2.85706	-0.162964	0.000457764	
2.85797	-0.163269	0.000152588	
2.85797	-0.162659	0.000457764	
2.85889	-0.162659	0.000457764	
2.86163	-0.163269	0.000152588	
2.86194	-0.162659	0.000457764	
2.86407	-0.163269	0.000305176	
2.86652	-0.162964	0.000305176	
2.86774	-0.163269	0.000762939	
2.86835	-0.162964	0.000457764	
2.87109	-0.163269	0.000762939	
2.87292	-0.162659	0.000305176	
2.87384	-0.163574	0.000305176	
2.87659	-0.163269	0.000457764	
2.87781	-0.163574	0.000610352	
2.87933	-0.163269	0.000305176	
2.88177	-0.163269	0.000305176	
2.88208	-0.163574	0.000152588	
2.88361	-0.163269	0.000457764	
2.88666	-0.163574	0.00106812	
2.88696	-0.163269	0.000457764	
2.88818	-0.162659	0.000152588	
2.89093	-0.163574	0.000610352	
2.89215	-0.162659	0.000305176	
2.89368	-0.163269	0.000610352	
2.89581	-0.162659	0.000152588	
2.89612	-0.162659	0.000152588	
2.89856	-0.162964	0.000305176	
2.90131	-0.163574	0.000762939	
2.90222	-0.163574	0.000457764	
2.90375	-0.1651	0.000305176	
2.90558	-0.168152	0.000457764	
2.9068	-0.167847	0.000762939	
2.9071	-0.168457	0.000762939	
2.9068	-0.168762	0.000457764	
2.91229	-0.167847	0.000457764	
2.92297	-0.168152	0.000457764	
2.92755	-0.167847	0.000457764	
2.9306	-0.167847	0.000305176	
2.93213	-0.168152	0.000305176	
2.93304	-0.168457	0.000305176	
2.93549	-0.167847	0.000610352	
2.93671	-0.168457	0.000305176	
2.93823	-0.168152	0.000152588	
2.94067	-0.168152	0.000152588	
2.94159	-0.167847	0.000762939	
2.94312	-0.167847	0.000457764	
2.94525	-0.168457	0.000457764	
2.948	-0.168457	0.000457764	
2.95044	-0.167847	0.000457764	
2.95166	-0.168152	0.000610352	
2.95288	-0.168152	0.000610352	
2.95532	-0.168152	0.000305176	
2.95654	-0.167847	0.000305176	
2.95807	-0.168152	0.000152588	
2.96082	-0.167847	0.000457764	
2.96173	-0.168457	0.000152588	
2.96173	-0.168457	0.000457764	
2.96173	-0.168152	0.000305176	
2.96265	-0.168457	0.00106812	
2.96509	-0.168152	0.000610352	
2.96631	-0.168152	0.000457764	
2.96722	-0.168152	0.000457764	
2.96997	-0.168152	0.000305176	
2.97089	-0.168152	0.000610352	
2.97241	-0.168152	0.000457764	
2.97546	-0.167847	0	
2.97638	-0.168457	0.000305176	
2.98035	-0.168152	0.000457764	
2.98126	-0.168762	0.000305176	
2.98248	-0.168457	0.000610352	
2.98523	-0.167542	0.000457764	
2.98706	-0.168762	0.000457764	
2.99011	-0.168457	0.000610352	
2.99103	-0.168152	0.000610352	
2.99255	-0.168457	0.000305176	
2.99438	-0.168152	0.000305176	
2.99683	-0.168152	0.000457764	
2.99957	-0.167847	0.000610352	
3.00079	-0.168762	0	
3.00171	-0.168457	0.000152588	
3.00476	-0.168152	0.000305176	
3.0069	-0.168152	0.000305176	
3.00995	-0.167847	0.000610352	
3.01025	-0.168152	0.000457764	
3.01239	-0.167847	0.000610352	
3.01514	-0.167847	0.000915527	
3.01666	-0.167847	0.000305176	
3.0191	-0.168152	0.000915527	
3.02032	-0.168152	0.000457764	
3.02185	-0.168152	0.000457764	
3.02429	-0.167847	0.000610352	
3.02612	-0.168152	0.000457764	
3.02917	-0.168457	0.000457764	
3.0307	-0.167847	0.000762939	
3.03131	-0.168152	0.000305176	
3.03467	-0.168457	0.000305176	
3.0368	-0.168152	0.000152588	
3.03955	-0.165405	0.000762939	
3.04169	-0.162964	0.000610352	
3.04443	-0.163269	0.000152588	
3.04504	-0.163574	0.000305176	
3.04688	-0.163574	0.000610352	
3.04932	-0.163574	0.000610352	
3.05115	-0.162964	0.000457764	
3.05389	-0.163574	0.000152588	
3.05634	-0.162964	0.000305176	
3.05908	-0.163269	0	
3.06	-0.163269	0.000457764	
3.06152	-0.163574	0.000152588	
3.06458	-0.163574	0.000457764	
3.06641	-0.163574	0.000457764	
3.06915	-0.163879	0.000305176	
3.07098	-0.163269	0.000610352	
3.07434	-0.163269	0.000610352	
3.07434	-0.163574	0.000610352	
3.07617	-0.163269	0.000762939	
3.07831	-0.162964	0.000457764	
3.07953	-0.163269	0.000305176	
3.08075	-0.162659	0	
3.0838	-0.162964	0.000457764	
3.08594	-0.163574	0	
3.08868	-0.163574	0.000762939	
3.0899	-0.163574	0.000305176	
3.09326	-0.163574	0.000610352	
3.09448	-0.162964	0.000610352	
3.0957	-0.162659	0.000762939	
3.09875	-0.163269	0.000610352	
3.1012	-0.163574	0.000610352	
3.10364	-0.163574	0.000610352	
3.10608	-0.162964	0.000152588	
3.10883	-0.162964	0.000457764	
3.11096	-0.162964	0.000305176	
3.11371	-0.163879	0.000457764	
3.11554	-0.162964	0.000152588	
3.11829	-0.162964	0.000610352	
3.11859	-0.163574	0.000610352	
3.12042	-0.163269	0.000457764	
3.12286	-0.163574	0.000610352	
3.12531	-0.162964	0.000457764	
3.12744	-0.163574	0.000152588	
3.13019	-0.162964	0.000610352	
3.13263	-0.163574	0.000457764	
3.13507	-0.163269	0.000457764	
3.13751	-0.163269	0.000305176	
3.13965	-0.163269	0.000610352	
3.1427	-0.163879	-0.000152588	
3.14545	-0.163574	0	
3.14819	-0.163574	0.000305176	
3.14941	-0.162964	0.000610352	
3.15247	-0.163574	0.000610352	
3.15521	-0.162659	0.000610352	
3.15765	-0.163574	0.000457764	
3.15918	-0.163269	0.000457764	
3.1601	-0.163574	0.000610352	
3.16284	-0.163574	0.000457764	
3.16467	-0.162964	0.000305176	
3.16803	-0.162964	0.000457764	
3.16986	-0.162964	0.000305176	
3.1723	-0.163269	0.000457764	
3.17505	-0.163574	0.000457764	
3.17719	-0.163269	0.000610352	
3.17963	-0.161133	0.000305176	
3.18237	-0.158997	0.000610352	
3.18542	-0.157471	0.000305176	
3.18726	-0.158081	0.000610352	
3.18939	-0.157776	0.000915527	
3.19214	-0.158386	0.000762939	
3.19489	-0.158386	0	
3.19672	-0.158081	0.000457764	
3.19977	-0.158691	0.000610352	
3.20221	-0.158081	0.000152588	
3.20435	-0.158386	0.000152588	
3.2074	-0.157776	0.000457764	
3.20892	-0.158691	0.000457764	
3.21228	-0.158691	0.000152588	
3.21411	-0.158691	0.000152588	
3.21655	-0.158691	0.000457764	
3.21899	-0.158386	0.000457764	
3.22174	-0.158691	0.000610352	
3.22357	-0.158691	0.000457764	
3.22662	-0.158081	0.000610352	
3.22937	-0.158386	0.000762939	
3.23151	-0.158081	0.000457764	
3.23364	-0.158081	0.000305176	
3.23639	-0.158386	0.000305176	
3.23853	-0.158691	0.000152588	
3.24219	-0.158691	0.000305176	
3.24341	-0.158386	0	
3.24677	-0.158081	0.000457764	
3.24829	-0.158386	0.000457764	
3.25165	-0.158691	0.000152588	
3.25348	-0.158386	0.000457764	
3.25623	-0.158691	0.000610352	
3.25897	-0.158386	0.000610352	
3.26111	-0.158081	0.000762939	
3.26385	-0.158691	0.000152588	
3.26691	-0.158691	0.000305176	
3.26874	-0.158691	0.000305176	
3.27179	-0.158081	0.000610352	
3.27454	-0.158081	0.000152588	
3.27667	-0.156555	0.000457764	
3.27881	-0.154419	0.000457764	
3.28094	-0.153809	0.000152588	
3.28308	-0.153198	0.000610352	
3.28644	-0.153503	0.000915527	
3.28857	-0.153809	0.000610352	
3.29102	-0.153198	0.000915527	
3.29254	-0.153809	0.000305176	
3.29559	-0.153809	0.000305176	
3.29742	-0.153503	0.000305176	
3.30139	-0.154114	0.000610352	
3.30536	-0.153809	0.000152588	
3.30811	-0.153503	0.000457764	
3.31116	-0.153809	0.000152588	
3.31238	-0.153503	0.000305176	
3.31573	-0.153809	0.000457764	
3.31757	-0.153809	0.000305176	
3.32031	-0.154114	0.000457764	
3.32245	-0.153503	0.000457764	
3.32581	-0.153503	0.000457764	
3.32794	-0.153809	0.000610352	
3.33038	-0.153503	0.000305176	
3.33221	-0.153503	0.000915527	
3.33496	-0.153809	0.000610352	
3.3374	-0.153503	0.000152588	
3.34137	-0.153198	0	
3.34503	-0.153809	0.000305176	
3.34717	-0.153503	0.000152588	
3.34991	-0.152893	0.000610352	
3.35266	-0.153503	0.000457764	
3.35449	-0.153503	0.000152588	
3.35785	-0.153809	0.000610352	
3.36029	-0.153198	0.000762939	
3.36243	-0.151062	0.000610352	
3.36517	-0.149231	0.000762939	
3.36639	-0.148926	0.000305176	
3.36945	-0.148621	0.000305176	
3.37219	-0.148926	0.000152588	
3.37524	-0.148621	0.000152588	
3.37921	-0.148926	0.000915527	
3.38196	-0.148621	0.000152588	
3.3847	-0.148926	0.000305176	
3.38623	-0.149231	0.000457764	
3.3902	-0.148315	0.000457764	
3.39233	-0.148926	0.000762939	
3.39417	-0.148926	0.000610352	
3.39691	-0.148926	0.000457764	
3.40118	-0.148926	0.000305176	
3.40454	-0.148621	0.000762939	
3.40607	-0.148621	0.000457764	
3.40973	-0.148926	0.000152588	
3.41156	-0.149231	0.000305176	
3.41461	-0.148621	0.000152588	
3.41644	-0.148926	0.000305176	
3.41919	-0.149231	0.000152588	
3.42102	-0.148621	0.000457764	
3.4256	-0.148926	0.000610352	
3.42896	-0.148926	0.000152588	
3.4317	-0.148926	0.000915527	
3.43414	-0.148621	0.000457764	
3.43658	-0.148621	0.000457764	
3.43842	-0.14801	0.000305176	
3.44147	-0.14679	0.000305176	
3.44391	-0.144348	0.000305176	
3.44513	-0.143433	0.000610352	
3.44971	-0.144348	0.000152588	
3.45337	-0.143433	0.000305176	
3.45642	-0.143738	0.000152588	
3.45825	-0.143433	0.000457764	
3.46039	-0.143433	0.000457764	
3.46375	-0.144043	0.000610352	
3.46558	-0.143738	0.000457764	
3.46985	-0.144348	0.000457764	
3.47443	-0.143433	0.000457764	
3.47565	-0.143433	0.000457764	
3.4787	-0.143738	0.000610352	
3.48083	-0.143738	0.000610352	
3.48328	-0.144348	0	
3.48541	-0.144043	0.000610352	
3.48785	-0.143433	0.000305176	
3.4906	-0.144348	0.000152588	
3.49426	-0.144043	0.000457764	
3.49823	-0.144043	0.000152588	
3.50006	-0.143738	0.000762939	
3.50281	-0.143738	0.000610352	
3.50525	-0.144043	0.000762939	
3.50952	-0.144043	0.000762939	
3.51227	-0.144043	0.000457764	
3.51532	-0.143738	0.000457764	
3.51837	-0.142822	0.000305176	
3.51959	-0.144043	0.000305176	
3.52234	-0.144043	0.000305176	
3.52509	-0.144043	0.000305176	
3.52936	-0.143433	0.000457764	
3.53271	-0.144043	0.000610352	
3.53485	-0.142517	0	
3.53729	-0.13916	0.000457764	
3.54004	-0.13916	0.000152588	
3.54248	-0.138245	0.000610352	
3.54431	-0.13916	0.000305176	
3.54858	-0.13916	0.000305176	
3.55225	-0.138855	0.000305176	
3.5553	-0.13916	0.000457764	
3.55804	-0.138855	0.000457764	
3.55896	-0.139771	0.000305176	
3.56293	-0.138855	0.000152588	
3.56506	-0.138855	0.000305176	
3.56812	-0.13855	0	
3.57208	-0.13855	0.000457764	
3.57452	-0.139465	0.000305176	
3.57727	-0.13916	0	
3.57971	-0.13916	0.000305176	
3.58368	-0.138855	0.000610352	
3.58734	-0.13916	0.000457764	
3.58948	-0.13855	0.000457764	
3.59222	-0.138855	0.000305176	
3.59467	-0.13916	0.000915527	
3.59802	-0.13916	0	
3.60199	-0.138855	0.000457764	
3.60382	-0.139465	0.000457764	
3.60657	-0.139771	0.000915527	
3.60931	-0.138855	0.000152588	
3.61176	-0.13855	0.000610352	
3.6142	-0.138855	0.000762939	
3.61816	-0.139465	0.000457764	
3.62152	-0.13855	0.000762939	
3.62427	-0.137939	0.000610352	
3.6261	-0.139465	0.000610352	
3.62946	-0.13855	0.000610352	
3.63281	-0.13855	0.000305176	
3.63617	-0.136108	0.000610352	
3.63922	-0.134583	0.000305176	
3.64136	-0.133972	0.000457764	
3.64319	-0.133972	0.000457764	
3.64685	-0.134277	0.000305176	
3.65082	-0.133972	0.000152588	
3.65356	-0.134277	0.000610352	
3.65662	-0.134277	0.000152588	
3.65906	-0.133972	0.0012207	
3.66302	-0.134277	0.000305176	
3.66547	-0.133667	0.000457764	
3.66852	-0.133972	0.000610352	
3.67188	-0.134277	0.000610352	
3.6731	-0.133972	0.000305176	
3.67584	-0.133667	0.000305176	
3.67798	-0.133972	0	
3.68195	-0.134583	0.000305176	
3.68561	-0.134583	0.000152588	
3.68805	-0.133667	0.000457764	
3.6908	-0.133972	0.000152588	
3.69293	-0.134277	0.000457764	
3.69659	-0.133667	0.000305176	
3.69995	-0.133972	0.000457764	
3.70239	-0.134277	0.000762939	
3.70544	-0.131531	0.000305176	
3.70758	-0.1297	0.000457764	
3.71185	-0.129089	0.000457764	
3.7146	-0.129089	0.000152588	
3.71704	-0.129395	0.000305176	
3.72101	-0.129089	0.000610352	
3.72253	-0.128174	0.000305176	
3.7265	-0.1297	0.000305176	
3.72986	-0.129395	0.000457764	
3.7326	-0.128784	0.000457764	
3.73535	-0.129089	0.000305176	
3.73688	-0.129089	0.000457764	
3.74146	-0.129395	0.000457764	
3.74451	-0.127258	0.000152588	
3.74603	-0.124512	0.000610352	
3.74634	-0.123901	0.000305176	
3.74756	-0.124817	0.000305176	
3.74939	-0.124207	0.000152588	
3.75153	-0.124512	0.000610352	
3.7561	-0.124817	0.000152588	
3.75977	-0.124207	0.000457764	
3.7616	-0.124207	0.000305176	
3.76587	-0.124512	0.000305176	
3.76892	-0.12207	0.000305176	
3.77136	-0.119324	0.000610352	
3.77441	-0.119019	0.000152588	
3.77625	-0.119324	0.000610352	
3.78082	-0.119019	0.000305176	
3.78479	-0.119629	0.000305176	
3.78693	-0.119324	0.000610352	
3.78967	-0.117493	0	
3.79181	-0.114746	0.000152588	
3.79547	-0.114441	0.000152588	
3.79944	-0.114441	0.000305176	
3.80188	-0.114136	0	
3.80463	-0.114441	0.000457764	
3.80615	-0.111694	0.000457764	
3.80951	-0.109863	0.000457764	
3.81348	-0.109558	0.000610352	
3.81683	-0.109558	0.000457764	
3.81927	-0.109253	0.000457764	
3.82111	-0.107422	0.000152588	
3.82477	-0.105286	0.000305176	
3.82813	-0.104675	0.000305176	
3.83057	-0.104675	0	
3.83453	-0.102539	0.000457764	
3.8382	-0.100098	0.000610352	
3.83942	-0.0997925	0.000610352	
3.84064	-0.0997925	0.000457764	
3.84338	-0.0982666	0.000305176	
3.84552	-0.0946045	0.000762939	
3.8501	-0.0942993	0.000305176	
3.85345	-0.0946045	0.000762939	
3.85559	-0.0927734	0	
3.85834	-0.0900269	0.000610352	
3.86078	-0.0897217	0.000152588	
3.86475	-0.0875854	0.000457764	
3.86841	-0.0857544	0.000457764	
3.87085	-0.0848389	0.000305176	
3.87268	-0.085144	0.000762939	
3.87482	-0.0830078	0.000152588	
3.87909	-0.0805664	0.000457764	
3.88275	-0.0802612	0.000305176	
3.88458	-0.0769043	0.000305176	
3.88916	-0.0759888	0.000762939	
3.89282	-0.0753784	0.000457764	
3.89496	-0.0735474	0.000457764	
3.89771	-0.071106	0.000762939	
3.89954	-0.0680542	0.000457764	
3.90411	-0.0662231	0.000457764	
3.90747	-0.0656128	0.000305176	
3.90961	-0.0637817	0.000152588	
3.91205	-0.0616455	0.000457764	
3.91449	-0.0585938	0.000457764	
3.91876	-0.0564575	0.000457764	
3.92151	-0.055542	0.000152588	
3.92365	-0.0537109	0.000305176	
3.92853	-0.0512695	0.000762939	
3.93188	-0.0482178	0.000610352	
3.93433	-0.0457764	0.000762939	
3.93677	-0.0454712	0.000305176	
3.93921	-0.0436401	0.000457764	
3.94287	-0.0415039	0.000457764	
3.94684	-0.0387573	0.000305176	
3.94897	-0.0363159	0.000305176	
3.95203	-0.0338745	0.000305176	
3.95386	-0.0311279	0	
3.9566	-0.0283813	0.000305176	
3.95844	-0.0268555	0.000610352	
3.95844	-0.0234985	0.000305176	
3.95813	-0.0222778	0.000610352	
3.96637	-0.0186157	0.00106812	
3.98468	-0.0167847	0.000610352	
3.99323	-0.0140381	0.000152588	
3.9975	-0.012207	0.000305176	
4.00146	-0.0088501	0.000152588	
4.0033	-0.00640869	0.000457764	
4.00757	-0.00396729	0.000305176	
4.01123	-0.00213623	0.000152588	
4.01367	0.000915527	0.000305176	
4.01611	0.00213623	0.000305176	
4.01794	0.00518799	0.000152588	
4.02191	0.00762939	0.000762939	
4.02618	0.0100708	0.000762939	
4.02863	0.012207	0.000610352	
4.03229	0.0152588	0.000152588	
4.03564	0.0195313	0.000457764	
4.03809	0.0222778	0.000610352	
4.04053	0.0256348	0.000610352	
4.04297	0.0268555	0.000457764	
4.04694	0.0296021	0	
4.04999	0.0320435	0.000305176	
4.05212	0.0350952	0.000152588	
4.05518	0.0390625	0.000457764	
4.05762	0.0421143	0.000152588	
4.06158	0.0448608	0.000457764	
4.06494	0.0466919	0.000305176	
4.0683	0.0500488	0.000762939	
4.07135	0.0540161	0.000610352	
4.07501	0.0570679	0.000457764	
4.07715	0.0595093	0.000762939	
4.0802	0.0613403	0.000457764	
4.08234	0.0640869	0.000305176	
4.0863	0.0692749	0.000457764	
4.09027	0.0717163	0	
4.0921	0.0744629	0.000457764	
4.09485	0.0790405	0.000610352	
4.09698	0.0808716	0.000610352	
4.10095	0.083313	0.000457764	
4.10492	0.0854492	0.000457764	
4.10675	0.0875854	0.000457764	
4.11133	0.0921631	0.000915527	
4.11469	0.09552	0.000457764	
4.11682	0.0976563	0.000305176	
4.11987	0.102539	0.000610352	
4.1217	0.105286	0.000152588	
4.12598	0.108337	0.000457764	
4.12933	0.112305	0.000457764	
4.13177	0.114746	0.000457764	
4.13422	0.117493	0.000457764	
4.13635	0.120239	-0.000152588	
4.14124	0.122375	0.000457764	
4.14429	0.126953	0.000305176	
4.14642	0.1297	0.000305176	
4.15039	0.131836	0.000762939	
4.15436	0.137024	0.000610352	
4.15619	0.139465	0.000457764	
4.15894	0.142212	0.000457764	
4.16199	0.147095	0.000610352	
4.16534	0.149231	0.000305176	
4.1684	0.152283	0.000305176	
4.17084	0.15625	0.000152588	
4.17389	0.158997	0.000305176	
4.17603	0.161743	0.000457764	
4.1806	0.166016	0.000457764	
4.18365	0.168762	0.000305176	
4.18671	0.172119	0.000457764	
4.18884	0.17395	0.000152588	
4.19098	0.176392	0.000457764	
4.19525	0.180359	0.000762939	
4.19861	0.183411	0.000305176	
4.20074	0.186157	0.000610352	
4.20502	0.19104	0.000305176	
4.20807	0.192566	0.000152588	
4.21051	0.196228	0.000305176	
4.21356	0.2005	0.000305176	
4.21539	0.202332	0.000152588	
4.21997	0.206299	0.000457764	
4.22272	0.20752	0.000457764	
4.22607	0.210571	0.000305176	
4.22821	0.215759	0.000305176	
4.23035	0.217285	0.00106812	
4.2334	0.220642	0.000610352	
4.23859	0.222778	0.000457764	
4.23981	0.225525	0.000610352	
4.24316	0.230713	0.000457764	
4.245	0.232849	0.000305176	
4.24927	0.234985	0.000457764	
4.25232	0.237122	0.000305176	
4.25446	0.240173	0.000305176	
4.25781	0.245056	0.000305176	
4.25964	0.247498	0.000457764	
4.26392	0.249939	0.000457764	
4.26697	0.25238	0.000457764	
4.27002	0.254517	0.000762939	
4.27277	0.259094	0.000610352	
4.27521	0.262756	0.000457764	
4.27887	0.264893	0.000305176	
4.28284	0.267334	0.000457764	
4.28497	0.269165	0.000305176	
4.28741	0.271606	0.000457764	
4.28955	0.274658	0.000152588	
4.29352	0.278931	0.000305176	
4.29626	0.281677	0.000457764	
4.29932	0.284424	0.000305176	
4.30237	0.28656	0.000457764	
4.3042	0.289307	0.000610352	
4.30847	0.290833	0.000457764	
4.31152	0.294189	0.000610352	
4.31427	0.296326	0.000305176	
4.31732	0.298767	0.000305176	
4.31824	0.300903	0.000305176	
4.31824	0.30426	0.000457764	
4.31915	0.306091	0.000457764	
4.32312	0.308838	0.000152588	
4.32648	0.311584	0.000305176	
4.32861	0.314026	0.000152588	
4.33136	0.315857	0.000305176	
4.33411	0.318909	0.000305176	
4.33746	0.320435	0.000305176	
4.34113	0.323181	0.000457764	
4.34387	0.325012	0.000457764	
4.34631	0.328064	0.000610352	
4.34723	0.3302	0.000457764	
4.34753	0.333862	0.00106812	
4.34753	0.335999	0.000457764	
4.34662	0.338135	0.000457764	
4.34845	0.340881	0.000305176	
4.35211	0.343018	0.000152588	
4.35608	0.345154	0.000305176	
4.35883	0.346069	0.000457764	
4.36127	0.347595	0.000610352	
4.3631	0.350342	0.000457764	
4.36829	0.353088	0.000457764	
4.37073	0.355225	0.000762939	
4.37378	0.357971	0.000152588	
4.37622	0.359497	0.000305176	
4.37897	0.361938	0.000762939	
4.38171	0.362854	0.000762939	
4.38599	0.364685	0.000457764	
4.38873	0.367432	0.000305176	
4.39117	0.370178	0.000305176	
4.39301	0.370178	0.000305176	
4.39697	0.372925	0.000457764	
4.40063	0.374756	0.000457764	
4.40308	0.375671	0.000457764	
4.40613	0.377502	0.000457764	
4.40796	0.379639	0.000762939	
4.4104	0.380249	0.000457764	
4.41284	0.38269	0.000457764	
4.4165	0.384521	0.000457764	
4.42047	0.384827	0.000762939	
4.422	0.387268	0.000457764	
4.42596	0.389404	0.000457764	
4.42749	0.390625	0.000305176	
4.43146	0.392456	0.000457764	
4.43481	0.393677	-0.000152588	
4.43848	0.394592	0.000305176	
4.44061	0.397339	0.000610352	
4.44336	0.398865	0.000457764	
4.44672	0.39978	0.000457764	
4.44977	0.399475	0.000610352	
4.45251	0.402222	0.000762939	
4.45557	0.404358	0.000305176	
4.45679	0.404053	0.000762939	
4.45923	0.404358	0.000610352	
4.46228	0.406799	0.000152588	
4.46564	0.408936	0.000305176	
4.46991	0.409851	0.000305176	
4.47205	0.409546	0.000457764	
4.47418	0.411987	0.000457764	
4.47693	0.413208	0.000152588	
4.4809	0.414734	0.000457764	
4.48456	0.414429	0.000610352	
4.4873	0.415039	0.000305176	
4.48975	0.416565	0.000457764	
4.49188	0.419006	0.000762939	
4.49402	0.419312	0.000457764	
4.49738	0.419922	0.000305176	
4.50134	0.419617	0.000457764	
4.50439	0.421448	0.000152588	
4.50714	0.423584	0.000152588	
4.50989	0.423584	0	
4.51172	0.424194	0.000610352	
4.51477	0.423889	0.000457764	
4.51691	0.423584	0	
4.52087	0.426331	0.000305176	
4.52362	0.428772	0.000762939	
4.52637	0.429382	0.000762939	
4.52881	0.429077	0.000610352	
4.53094	0.429688	0.000457764	
4.5343	0.429077	0.000457764	
4.53583	0.428772	0.000305176	
4.5401	0.429382	0.000152588	
4.54407	0.429077	0.000152588	
4.5459	0.431519	0.000152588	
4.54865	0.433655	0.000305176	
4.55078	0.434265	0.000610352	
4.55414	0.43457	0.000457764	
4.55597	0.433655	0.000305176	
4.56024	0.43335	0.000762939	
4.5636	0.43396	0.000610352	
4.56573	0.43457	0.000762939	
4.56848	0.43457	0.000610352	
4.57031	0.43396	0.00106812	
4.57336	0.433655	0.000457764	
4.57581	0.43457	0.000305176	
4.57947	0.435181	0.000305176	
4.58282	0.43396	0.000457764	
4.58527	0.434875	0.000457764	
4.58801	0.436401	0.000152588	
4.59045	0.437622	0.000762939	
4.59259	0.439453	0.000457764	
4.59503	0.439453	0.000457764	
4.59961	0.438843	0.000610352	
4.60297	0.439453	0.000457764	
4.6051	0.438843	0.000152588	
4.60754	0.439453	0.000762939	
4.61029	0.438843	0.000610352	
4.61273	0.439758	0.000457764	
4.61517	0.439148	0	
4.61761	0.438538	0	
4.62006	0.439453	0.000305176	
4.62402	0.438843	0.000457764	
4.62738	0.439148	0.000152588	
4.62982	0.437012	0.000457764	
4.63287	0.43457	0.000305176	
4.6347	0.43457	0.000762939	
4.63806	0.43396	0.000305176	
4.63989	0.43396	0.000610352	
4.64447	0.434265	0.000152588	
4.64752	0.43396	0.000457764	
4.64966	0.43457	0.000457764	
4.6524	0.434875	0.000457764	
4.65454	0.433655	0.000152588	
4.65729	0.43396	0.000457764	
4.66034	0.434265	0.000152588	
4.66248	0.433655	0.000457764	
4.66431	0.433655	0.000457764	
4.66919	0.43396	0.000457764	
4.67133	0.434265	0.000610352	
4.67407	0.434265	0.000610352	
4.67712	0.432129	0.000457764	
4.67926	0.429993	0.000610352	
4.68231	0.428772	0.000610352	
4.68414	0.429688	0.000305176	
4.68719	0.429688	0.000305176	
4.68842	0.428162	0.000610352	
4.69299	0.429382	0.000305176	
4.69696	0.429993	0.000305176	
4.6991	0.429077	0.000305176	
4.70184	0.429382	0.000152588	
4.70459	0.426331	0	
4.70673	0.425415	0.000457764	
4.70825	0.4245	0.000305176	
4.711	0.42511	0.000457764	
4.71405	0.423889	0.000305176	
4.71619	0.424194	0.000915527	
4.71832	0.423889	0.000762939	
4.72198	0.4245	0.000305176	
4.72565	0.422058	0.000152588	
4.7287	0.420532	0.000152588	
4.73175	0.419006	0.000152588	
4.73358	0.419922	0.000457764	
4.73633	0.419312	0.000305176	
4.73816	0.418396	0.000457764	
4.7403	0.419617	0.000457764	
4.74304	0.417175	0.000610352	
4.74609	0.415344	0.000457764	
4.74854	0.414124	0.000305176	
4.75189	0.413818	0.000457764	
4.75616	0.414734	0.000610352	
4.75861	0.414429	0.000915527	
4.76105	0.413818	0.000305176	
4.76288	0.412292	0.000305176	
4.76563	0.409546	0	
4.76837	0.409546	0.000152588	
4.77051	0.409241	0.000457764	
4.77234	0.409546	0.000457764	
4.77631	0.410156	0.000457764	
4.77814	0.40741	0.000762939	
4.7821	0.405273	0.000610352	
4.78516	0.404358	0.000762939	
4.78821	0.404663	0.000915527	
4.79126	0.404358	0.000610352	
4.79309	0.404358	0.000457764	
4.79584	0.402527	0.000457764	
4.79767	0.400696	0.000305176	
4.80072	0.399475	0.000152588	
4.80286	0.399475	0.000457764	
4.80591	0.39978	0.000762939	
4.80743	0.397339	0.000152588	
4.81079	0.395813	0.000305176	
4.81262	0.394287	0.000610352	
4.81476	0.394897	0.000610352	
4.8172	0.395203	0.000457764	
4.82147	0.392761	0.000610352	
4.82483	0.390625	0.000457764	
4.82758	0.389404	0.000457764	
4.83032	0.390625	0.000305176	
4.83185	0.39093	0.000152588	
4.83521	0.387268	0	
4.83765	0.385132	0.000152588	
4.84009	0.385742	0.000305176	
4.84222	0.384827	0.000305176	
4.84497	0.385437	0.000305176	
4.84711	0.383301	0.000152588	
4.84985	0.381165	0.000762939	
4.85168	0.380249	0.000610352	
4.85413	0.379944	0.000610352	
4.85657	0.379944	0.000305176	
4.86023	0.378418	0.000457764	
4.86389	0.376587	0.000457764	
4.86694	0.375366	0.000457764	
4.86938	0.374756	0.000305176	
4.87122	0.375671	0.000152588	
4.87427	0.37323	0	
4.8761	0.371399	0.000610352	
4.87946	0.369568	0.000610352	
4.88159	0.370178	0.000457764	
4.88464	0.370178	0.000610352	
4.88586	0.368652	0.000457764	
4.88922	0.365601	0.000305176	
4.89136	0.366211	0.000915527	
4.8938	0.365295	0.000762939	
4.89624	0.363464	0.000305176	
4.89899	0.361328	0.000305176	
4.90112	0.360413	0.000305176	
4.90417	0.360718	0.000305176	
4.9057	0.360718	0.000457764	
4.91058	0.357971	0.000457764	
4.91394	0.35553	0.000305176	
4.91638	0.355225	0.000457764	
4.91852	0.35553	0.000457764	
4.92126	0.355835	0.000457764	
4.92371	0.353394	0.000762939	
4.92554	0.351257	0.000457764	
4.92859	0.350647	0.000305176	
4.93042	0.350647	0.000305176	
4.93378	0.349121	0.000457764	
4.93591	0.34668	0.000152588	
4.93835	0.345764	0.000305176	
4.93988	0.345459	0.000305176	
4.94293	0.346069	0.000610352	
4.94568	0.343933	0.000152588	
4.94843	0.341187	0.000152588	
4.95087	0.340881	0.000152588	
4.953	0.341187	0.000610352	
4.95514	0.33905	0.000610352	
4.95789	0.336609	0.000610352	
4.96002	0.336609	0.000305176	
4.96307	0.335693	0.000457764	
4.96552	0.336609	0.000457764	
4.96826	0.333557	0.000152588	
4.9707	0.331421	0.000152588	
4.97375	0.332031	0.000457764	
4.97559	0.330811	0.000305176	
4.97772	0.328674	0.000610352	
4.98047	0.326538	0.000305176	
4.9826	0.326233	0.000457764	
4.98474	0.326233	0.000610352	
4.98779	0.326538	0.000762939	
4.99023	0.324097	0.000610352	
4.99207	0.321655	0.000152588	
4.99512	0.322266	0.000457764	
4.99786	0.32135	0.000610352	
4.99939	0.318909	0.000152588	
5.00183	0.317078	0.000305176	
5.00458	0.315857	0.000152588	
5.00854	0.316162	0.000305176	
5.01221	0.316162	0.000457764	
5.01465	0.314331	0.000152588	
5.01709	0.3125	0.000610352	
5.02014	0.312195	0.000457764	
5.02197	0.311584	0.000610352	
5.0238	0.309753	0.000305176	
5.02747	0.306702	0.000305176	
5.02899	0.307617	0.000762939	
5.03235	0.307007	0.000152588	
5.03448	0.306396	0.000305176	
5.03723	0.30426	0.000152588	
5.03937	0.302124	0	
5.04211	0.301514	0.000152588	
5.04395	0.302429	0.000610352	
5.047	0.299683	0.000457764	
5.04883	0.296936	0.000762939	
5.05188	0.296936	0.000305176	
5.05402	0.296631	0.000457764	
5.05676	0.296326	0.000610352	
5.0592	0.294495	0.000457764	
5.06165	0.293274	0.000457764	
5.06378	0.291443	0.000762939	
5.06714	0.291748	0.000305176	
5.06897	0.289917	0.000305176	
5.07172	0.288086	0.000305176	
5.07263	0.287476	0.000305176	
5.07416	0.286865	0.000152588	
5.07599	0.285339	0.000457764	
5.07874	0.282593	0.000305176	
5.08026	0.281982	0.000457764	
5.0824	0.282288	0.000762939	
5.08606	0.282288	0.000762939	
5.0885	0.280151	0.000610352	
5.09033	0.27771	0.000915527	
5.09186	0.2771	0.000305176	
5.09583	0.276794	0.000305176	
5.09796	0.275269	0	
5.1004	0.272522	0.000457764	
5.10315	0.272522	0.000152588	
5.1059	0.272522	0.000152588	
5.10742	0.270996	0.000305176	
5.11047	0.268555	0.000305176	
5.1123	0.267334	0.000457764	
5.11536	0.267334	0.000610352	
5.1181	0.267639	0.000457764	
5.12085	0.265198	0.000610352	
5.12268	0.263062	0.000457764	
5.12512	0.262451	0.000610352	
5.12726	0.262756	0.000762939	
5.13	0.26062	0.000305176	
5.13275	0.258179	0	
5.13489	0.257263	0.000152588	
5.13763	0.257874	0.000305176	
5.14038	0.255127	0.000610352	
5.14191	0.253296	0.000152588	
5.14496	0.25238	0.000305176	
5.14709	0.252991	0.000610352	
5.14984	0.253296	0.000762939	
5.15259	0.250854	0.000305176	
5.15503	0.248413	0.000762939	
5.15656	0.247803	0.000457764	
5.15991	0.247803	0.000305176	
5.16113	0.245361	0.000610352	
5.16235	0.243835	0.000305176	
5.1651	0.24292	0	
5.16724	0.24231	0.000610352	
5.16968	0.239563	0.000305176	
5.1712	0.238342	0.000457764	
5.17426	0.238037	0.000457764	
5.17609	0.238647	0.000305176	
5.17975	0.238037	0.000915527	
5.18127	0.236511	0.00106812	
5.18433	0.233459	0.000305176	
5.18707	0.233154	0.000610352	
5.18921	0.233459	0.000152588	
5.19135	0.231323	0.000457764	
5.19409	0.228577	0	
5.19684	0.228577	0.000457764	
5.19867	0.228577	0.000152588	
5.20172	0.226135	0.000762939	
5.20447	0.224304	0.000305176	
5.20508	0.223083	0.000152588	
5.2066	0.223694	0.000457764	
5.20874	0.223083	0.000762939	
5.21118	0.221558	0.000457764	
5.21362	0.218506	0.000305176	
5.21606	0.219116	0.000610352	
5.21912	0.217896	0.000762939	
5.22156	0.21637	0.000610352	
5.22369	0.213623	0.000610352	
5.22552	0.213623	0.000152588	
5.22858	0.213623	0	
5.23163	0.213928	0.000152588	
5.23438	0.211792	0.000152588	
5.23621	0.209351	0.000152588	
5.23834	0.20813	0.000305176	
5.23926	0.20813	0.000457764	
5.24078	0.206909	0.000610352	
5.24414	0.203857	0.000457764	
5.24536	0.203857	0.000152588	
5.24872	0.203552	0.000762939	
5.25024	0.203857	0.000457764	
5.25421	0.201721	0.000305176	
5.25604	0.198975	0.000152588	
5.25848	0.198669	0.000305176	
5.26062	0.198975	0.000457764	
5.26367	0.196838	0.000152588	
5.2655	0.194397	0.000457764	
5.26855	0.194092	0.000457764	
5.26947	0.194092	0	
5.27069	0.194397	0.000610352	
5.27344	0.191345	0.000610352	
5.27557	0.188904	0.000457764	
5.27863	0.188904	0.000457764	
5.28015	0.188599	0.000457764	
5.2829	0.189209	0.000457764	
5.28595	0.185852	0	
5.28809	0.184326	0.000305176	
5.29053	0.184326	0.000305176	
5.29297	0.184021	0.000152588	
5.29358	0.183716	0.000152588	
5.29541	0.181885	0.000305176	
5.29846	0.179443	0.000305176	
5.30029	0.178833	0.000305176	
5.30304	0.179443	0	
5.30548	0.179138	0.000610352	
5.30823	0.176392	0.000152588	
5.31036	0.174561	0.000457764	
5.31281	0.174561	0.000457764	
5.31433	0.174866	0.000305176	
5.31769	0.172424	0	
5.31921	0.169678	0.000305176	
5.31982	0.169373	0.000305176	
5.32318	0.168762	0.000457764	
5.32471	0.169067	0.000305176	
5.32776	0.169067	0.000152588	
5.3299	0.167236	0.000457764	
5.33203	0.16449	0.000915527	
5.33539	0.16449	0.000610352	
5.33783	0.164795	0.000457764	
5.33844	0.16449	0.000610352	
5.33997	0.162048	0.000152588	
5.34241	0.159607	0.000610352	
5.34485	0.159302	0.000305176	
5.3476	0.159302	0.000305176	
5.34943	0.158691	0.000457764	
5.35217	0.157166	0.000152588	
5.35492	0.154419	0.000610352	
5.35706	0.155029	0.000457764	
5.35797	0.155029	0.000457764	
5.3595	0.154724	0.000457764	
5.36255	0.152588	0.000762939	
5.36407	0.151062	0.000457764	
5.36682	0.150146	0.000152588	
5.36957	0.149841	0.000457764	
5.37231	0.150146	0.000305176	
5.37384	0.149536	0.000305176	
5.3772	0.148315	0.000305176	
5.37811	0.145264	0.000305176	
5.37964	0.144043	0.000305176	
5.38239	0.144958	0.000305176	
5.38391	0.144958	0.000152588	
5.38666	0.145264	0.000457764	
5.38879	0.142517	0.000610352	
5.39185	0.140991	0.000457764	
5.39246	0.139771	0.000762939	
5.39337	0.140076	0	
5.39642	0.140076	0.000610352	
5.39856	0.138245	0.000152588	
5.40161	0.135498	0.000152588	
5.40375	0.134888	0.000152588	
5.40649	0.134888	-0.000152588	
5.4071	0.134888	0.000457764	
5.40833	0.134888	0.000152588	
5.41107	0.132751	0.000305176	
5.4129	0.130615	0	
5.41687	0.129089	0.000305176	
5.4187	0.13031	0.000610352	
5.42145	0.13031	0.000610352	
5.42175	0.130005	0.000457764	
5.42358	0.127258	0.000305176	
5.42603	0.126343	0.000610352	
5.42847	0.125732	0.000305176	
5.43152	0.125427	0	
5.43335	0.125732	0.000305176	
5.43579	0.125427	0.000152588	
5.43701	0.125122	0.000152588	
5.43854	0.122681	0.000152588	
5.44098	0.12085	0.000457764	
5.44342	0.12085	0.000457764	
5.44647	0.120544	0.000762939	
5.448	0.120239	0.000305176	
5.45105	0.120544	0.000457764	
5.45288	0.117798	0.000305176	
5.45349	0.115967	0.000457764	
5.45624	0.115662	0.000305176	
5.45807	0.115662	-0.000152588	
5.46082	0.115356	0	
5.46173	0.115662	0	
5.46417	0.115051	0.000305176	
5.46539	0.112915	0.000305176	
5.46783	0.111084	0.000305176	
5.47058	0.110474	0.000305176	
5.47302	0.110474	0.000305176	
5.47577	0.110474	0.000457764	
5.47638	0.109863	0.000457764	
5.4776	0.110474	0.000457764	
5.48096	0.108643	0.000762939	
5.48279	0.106506	0.000457764	
5.48462	0.10498	0.000457764	
5.48584	0.105896	0.000305176	
5.48767	0.105591	0	
5.49103	0.106506	0.000305176	
5.49286	0.105591	0.000457764	
5.495	0.105286	0.000152588	
5.49744	0.103455	0.000762939	
5.50049	0.101013	0.000305176	
5.5011	0.101318	0.000457764	
5.50293	0.100708	0.000305176	
5.50568	0.101318	0.000610352	
5.5072	0.100098	0.000305176	
5.51056	0.100708	0.000457764	
5.51086	0.100403	0.000305176	
5.513	0.0985718	0.000305176	
5.51544	0.0961304	0.000152588	
5.51697	0.0952148	0.000305176	
5.52002	0.0952148	0.000305176	
5.52094	0.0958252	0.000457764	
5.52307	0.09552	0.000457764	
5.5249	0.0961304	0.000457764	
5.52612	0.0958252	0.000610352	
5.53009	0.093689	0.000610352	
5.53101	0.0915527	0.000610352	
5.53253	0.0909424	0.000762939	
5.53436	0.0909424	0.000610352	
5.5365	0.0912476	0.000762939	
5.53986	0.0909424	0.000152588	
5.54077	0.0912476	0.000305176	
5.5423	0.0912476	0	
5.54443	0.0888062	0.000305176	
5.54688	0.0863647	0.000457764	
5.54932	0.0854492	0	
5.54993	0.0854492	0.000610352	
5.55145	0.0854492	0.000762939	
5.55389	0.0863647	0.000457764	
5.55634	0.0863647	0.000610352	
5.55969	0.0857544	0.000305176	
5.5603	0.0860596	0.000305176	
5.56213	0.0842285	0.000305176	
5.56396	0.0817871	0.000457764	
5.56671	0.0808716	0.000152588	
5.56946	0.0805664	0.000152588	
5.57007	0.0805664	0.000305176	
5.57068	0.0808716	0	
5.57404	0.0808716	0.000610352	
5.57648	0.0814819	0.000152588	
5.57953	0.0808716	0.000762939	
5.58014	0.0790405	0.000457764	
5.58167	0.0778198	0.000610352	
5.5835	0.078125	0.000152588	
5.58533	0.0765991	0.000762939	
5.58655	0.0769043	0.000305176	
5.58868	0.0772095	0.000762939	
5.59143	0.0769043	0	
5.59357	0.0769043	0.000152588	
5.59479	0.0765991	0.000457764	
5.59601	0.0775146	0.000457764	
5.59875	0.0741577	0.000457764	
5.6012	0.072937	0.000305176	
5.60364	0.0720215	0.000610352	
5.60486	0.0720215	0.000610352	
5.60577	0.0723267	0.000457764	
5.60822	0.0717163	0.000610352	
5.61035	0.0717163	0.000610352	
5.61127	0.0720215	0.000610352	
5.6134	0.0717163	0.000762939	
5.61615	0.0717163	0.000152588	
5.61798	0.0695801	0.000457764	
5.6192	0.067749	0.000305176	
5.62103	0.0668335	0.000457764	
5.62378	0.0671387	0.000457764	
5.62561	0.0668335	0.000305176	
5.62836	0.0668335	0.000305176	
5.62927	0.0668335	0.000610352	
5.6311	0.067749	0.000305176	
5.63293	0.0668335	0.000305176	
5.63446	0.0671387	0.000152588	
5.63568	0.0668335	0.000610352	
5.63843	0.0643921	0.000305176	
5.64026	0.0628662	0.000152588	
5.64301	0.0622559	0.000305176	
5.64392	0.0622559	0.000305176	
5.64575	0.0622559	0.000305176	
5.6485	0.0622559	0.000305176	
5.64941	0.0619507	0.000305176	
5.65033	0.062561	0.000457764	
5.65308	0.0619507	0.000610352	
5.65399	0.0622559	0.000457764	
5.65521	0.0622559	0.000762939	
5.65765	0.0601196	0.000610352	
5.6601	0.0570679	0.000610352	
5.66284	0.057373	0.000457764	
5.66406	0.0570679	0.000305176	
5.66498	0.0567627	0	
5.66833	0.0570679	-0.000152588	
5.66925	0.0567627	0.000305176	
5.67047	0.0576782	0.000152588	
5.6723	0.057373	0.000457764	
5.67474	0.057373	0	
5.67719	0.0570679	0.000152588	
5.67841	0.0549316	0.00106812	
5.68085	0.0527954	0.000610352	
5.68237	0.0531006	0.000305176	
5.6839	0.0524902	0.000610352	
5.68512	0.0518799	0.000457764	
5.68848	0.0521851	0.000457764	
5.68878	0.0518799	0	
5.6897	0.0524902	0.000305176	
5.69244	0.0521851	0.000305176	
5.69305	0.0537109	0.000610352	
5.69489	0.0518799	0.000457764	
5.69763	0.0506592	0.000457764	
5.69946	0.0482178	0.000457764	
5.70221	0.0469971	0.000610352	
5.70404	0.0476074	0.000152588	
5.70435	0.0476074	0.000305176	
5.70648	0.0466919	0.000152588	
5.70801	0.0473022	0.000457764	
5.70953	0.0473022	0.000610352	
5.71167	0.0479126	0.000305176	
5.7135	0.0473022	0.000152588	
5.71411	0.0469971	0	
5.71686	0.0473022	0.000457764	
5.71838	0.045166	0.000457764	
5.7193	0.0430298	0.000305176	
5.72205	0.0424194	0.000305176	
5.72388	0.0424194	0.000305176	
5.72662	0.0427246	0.000762939	
5.72784	0.0427246	0.000762939	
5.72968	0.0427246	0.000457764	
5.73181	0.043335	0.000305176	
5.73303	0.0421143	0.000457764	
5.73395	0.0427246	0.000152588	
5.73639	0.0421143	0.000305176	
5.73792	0.0405884	0.000305176	
5.73944	0.038147	0.000457764	
5.74158	0.0378418	0.000305176	
5.7428	0.0369263	0.000305176	
5.74432	0.0378418	0.000305176	
5.74646	0.0375366	0.000305176	
5.74799	0.0375366	0.000610352	
5.74829	0.038147	0.000457764	
5.75134	0.0372314	0.000305176	
5.75226	0.0369263	0.000457764	
5.75409	0.0372314	0.000610352	
5.75714	0.0378418	0.000610352	
5.75775	0.0354004	0.000610352	
5.75897	0.0323486	0.000305176	
5.76111	0.0320435	0.000152588	
5.76233	0.0320435	0.000152588	
5.76416	0.0323486	0.000610352	
5.7666	0.0326538	0.000305176	
5.76721	0.0323486	0.000305176	
5.76935	0.0326538	0.000915527	
5.77118	0.032959	0.000457764	
5.77301	0.0326538	0.000457764	
5.77362	0.0326538	0.000152588	
5.77606	0.0326538	0.000610352	
5.77698	0.0320435	0.000305176	
5.77881	0.0302124	0.000457764	
5.78033	0.0286865	0.000152588	
5.78247	0.0271606	0.000305176	
5.78369	0.0280762	0.000152588	
5.78613	0.027771	0.000305176	
5.78705	0.027771	0.000762939	
5.78857	0.0274658	0.000457764	
5.79163	0.0271606	0.000152588	
5.79193	0.0274658	0.000610352	
5.79346	0.0280762	0.000610352	
5.7962	0.0280762	0.000152588	
5.79712	0.0274658	0.000305176	
5.79865	0.0253296	0.000152588	
5.8017	0.0238037	0.000610352	
5.802	0.0228882	0	
5.80353	0.0238037	0.000152588	
5.80627	0.0228882	0.000610352	
5.80688	0.0231934	0.000457764	
5.80872	0.022583	0.000915527	
5.81146	0.0228882	0.000152588	
5.81207	0.0228882	0.000305176	
5.81329	0.022583	0.000457764	
5.81604	0.0231934	0.000762939	
5.81573	0.0228882	0.000610352	
5.81848	0.0204468	0.000457764	
5.82092	0.0189209	0.000305176	
5.82123	0.017395	0.000457764	
5.82245	0.0177002	0.000152588	
5.8255	0.0177002	0.000457764	
5.82672	0.0177002	0.000305176	
5.82825	0.0177002	0.000610352	
5.83099	0.0183105	0.000457764	
5.83221	0.0183105	0.000152588	
5.83099	0.0183105	0.000762939	
5.83282	0.0186157	0.000762939	
5.83527	0.0180054	0.000457764	
5.83679	0.015564	0.000457764	
5.83832	0.0131226	0.000152588	
5.83984	0.0134277	0.000305176	
5.84229	0.0134277	0.000610352	
5.8432	0.012207	0.000305176	
5.84503	0.0125122	0	
5.84656	0.0128174	0.000152588	
5.84778	0.0125122	0.000152588	
5.84991	0.0131226	0.000457764	
5.85083	0.0128174	0.000305176	
5.85266	0.0131226	0.000457764	
5.85449	0.0109863	0.000457764	
5.85571	0.00854492	0.000762939	
5.85663	0.00823975	0.000457764	
5.85724	0.00823975	0.000305176	
5.85999	0.00823975	0.000305176	
5.8609	0.00823975	0.000457764	
5.86273	0.00793457	0.000305176	
5.86487	0.00793457	0.000152588	
5.86639	0.00701904	0.000152588	
5.867	0.00823975	0.000457764	
5.87006	0.00793457	0.000305176	
5.87067	0.00549316	0.000457764	
5.8725	0.00335693	0.000305176	
5.87524	0.00274658	0.000610352	
5.87585	0.00396729	0.000915527	
5.87555	0.00274658	0.000305176	
5.87708	0.00335693	0.000305176	
5.87982	0.00335693	0.000610352	
5.88074	0.00335693	0.000305176	
5.88196	0.00396729	0.000305176	
5.88409	0.00366211	0.000152588	
5.88562	0.00366211	0.000457764	
5.88745	0.000610352	0.000457764	
5.88959	-0.000915527	0.000305176	
5.89081	-0.00183105	0.000457764	
5.89111	-0.00152588	0.000152588	
5.89203	-0.000915527	0.000457764	
5.89417	-0.00213623	0.000915527	
5.89539	-0.00152588	0.000610352	
5.89661	-0.00244141	0.000457764	
5.89966	-0.00213623	0.000305176	
5.89996	-0.0012207	0.000305176	
5.90179	-0.00183105	0.000457764	
5.90485	-0.00366211	0.000457764	
5.90515	-0.00579834	0.000152588	
5.90546	-0.00640869	0	
5.90698	-0.00671387	0.000457764	
5.90973	-0.00640869	0.000457764	
5.91034	-0.00701904	0.000305176	
5.91217	-0.00640869	0.000457764	
5.91431	-0.00610352	0.000305176	
5.91522	-0.00671387	0.000610352	
5.91522	-0.00579834	0.000457764	
5.91675	-0.00823975	0.000305176	
5.91949	-0.0109863	0.000457764	
5.9201	-0.0112915	0.000610352	
5.92133	-0.0115967	0.000610352	
5.92468	-0.0106812	0.000305176	
5.92529	-0.0109863	0.000457764	
5.92712	-0.0109863	0.000457764	
5.92926	-0.0109863	0	
5.93048	-0.0112915	0.000152588	
5.93018	-0.0115967	0	
5.9317	-0.0137329	0.000610352	
5.93384	-0.0161743	0.000915527	
5.93567	-0.0167847	0.000610352	
5.93628	-0.0158691	0.000305176	
5.93903	-0.0167847	0.000762939	
5.93964	-0.0158691	0.000610352	
5.93994	-0.0161743	0.000152588	
5.94116	-0.0158691	0.000152588	
5.94452	-0.0164795	0.000457764	
5.94482	-0.0164795	0.000610352	
5.94543	-0.0183105	0.000305176	
5.94879	-0.0201416	0	
5.95001	-0.0210571	0.000457764	
5.95062	-0.0210571	0.000457764	
5.95123	-0.0216675	0.000762939	
5.95367	-0.0210571	0.000457764	
5.9552	-0.0219727	0.000305176	
5.9549	-0.0216675	0.000305176	
5.95581	-0.0216675	0.000305176	
5.95947	-0.0210571	0.000610352	
5.95978	-0.0210571	0.000152588	
5.9613	-0.0234985	0	
5.96405	-0.0259399	0	
5.96497	-0.0256348	0.000610352	
5.96527	-0.0259399	0.000457764	
5.96588	-0.0256348	0	
5.96832	-0.0262451	0.000305176	
5.96954	-0.0262451	0.000152588	
5.97076	-0.0262451	0.000762939	
5.97321	-0.0262451	0.000762939	
5.97443	-0.0262451	0.000610352	
5.97534	-0.027771	0.000610352	
5.97534	-0.0308228	0.000305176	
5.979	-0.0311279	0.000610352	
5.97931	-0.0308228	0.000305176	
5.98022	-0.0302124	0.000457764	
5.98145	-0.0314331	0.000305176	
5.98328	-0.0308228	0.000152588	
5.9845	-0.0305176	0.000457764	
5.98541	-0.0311279	0.000152588	
5.98907	-0.0308228	0.000915527	
5.98907	-0.0326538	0.000610352	
5.98969	-0.0354004	0.000305176	
5.9906	-0.0363159	0.000457764	
5.99335	-0.0360107	0.000610352	
5.99426	-0.0357056	0.000457764	
5.99457	-0.0354004	0.000457764	
5.99518	-0.0360107	-0.000152588	
5.99823	-0.0357056	0.000305176	
5.99915	-0.0354004	0.000152588	
5.99915	-0.0354004	0.000152588	
6.00037	-0.038147	0.000305176	
6.00311	-0.039978	0.000305176	
6.00403	-0.0415039	0.000152588	
6.00372	-0.0408936	0.000610352	
6.00525	-0.0405884	0.000457764	
6.0083	-0.0408936	0.000457764	
6.00922	-0.0405884	0.000152588	
6.01074	-0.0408936	0.000305176	
6.01288	-0.0405884	0.000457764	
6.01349	-0.0408936	0.000457764	
6.01379	-0.043335	0.000152588	
6.01563	-0.045166	0	
6.01868	-0.0454712	0.000152588	
6.01929	-0.0460815	0.000305176	
6.01929	-0.0460815	0.000152588	
6.0202	-0.0457764	0.000610352	
6.02203	-0.0454712	0.000305176	
6.02386	-0.0460815	0.000915527	
6.02386	-0.0457764	0.000762939	
6.02539	-0.045166	0.000457764	
6.02753	-0.0448608	0.000762939	
6.02875	-0.0482178	0.000457764	
6.02875	-0.0497437	0.000305176	
6.02997	-0.0506592	0.000152588	
6.03271	-0.0509644	0.000457764	
6.03363	-0.0509644	0.000152588	
6.03394	-0.0506592	0.000152588	
6.03577	-0.050354	0.000610352	
6.0376	-0.0509644	0.000610352	
6.03851	-0.050354	0.000152588	
6.03821	-0.050354	0.000762939	
6.04065	-0.0527954	0.000305176	
6.04218	-0.0552368	0.000457764	
6.0437	-0.055542	0.000457764	
6.0437	-0.055542	0.000305176	
6.04553	-0.0558472	0.000457764	
6.04736	-0.055542	0	
6.04797	-0.0552368	0.000152588	
6.04828	-0.055542	0.000305176	
6.0498	-0.055542	0.000457764	
6.05194	-0.055542	0.000305176	
6.05347	-0.055542	0.000305176	
6.05316	-0.0579834	0.000305176	
6.0556	-0.0598145	0.000762939	
6.05804	-0.0601196	0.000457764	
6.05865	-0.0601196	0.000305176	
6.05835	-0.0604248	0.000305176	
6.05957	-0.0598145	0.000610352	
6.06232	-0.0613403	0.000305176	
6.06293	-0.0604248	0.000457764	
6.06323	-0.0601196	0	
6.06506	-0.0601196	0	
6.0672	-0.0610352	0.000610352	
6.06781	-0.0604248	0.000152588	
6.06842	-0.062561	0.000305176	
6.06964	-0.0650024	0.000152588	
6.07239	-0.065918	0.000610352	
6.0733	-0.0650024	0.000610352	
6.07422	-0.0653076	0.000457764	
6.07422	-0.0656128	0.000457764	
6.07697	-0.0653076	0.000457764	
6.07819	-0.0656128	0.000457764	
6.07788	-0.0650024	0.000152588	
6.07971	-0.0656128	0	
6.08246	-0.0653076	0.000457764	
6.08276	-0.0650024	0.000305176	
6.08307	-0.0671387	0.000152588	
6.08337	-0.0698853	0.000457764	
6.08429	-0.0701904	0.000457764	
6.08734	-0.0708008	0.000610352	
6.08795	-0.0701904	0.000762939	
6.08765	-0.0698853	0.000610352	
6.08978	-0.0704956	0.000610352	
6.09131	-0.0701904	0.000305176	
6.09314	-0.0698853	0.000152588	
6.09314	-0.0704956	0.000305176	
6.09558	-0.0698853	0.000152588	
6.0968	-0.0698853	0.000457764	
6.09802	-0.0704956	0.000305176	
6.09802	-0.0726318	0.000152588	
6.09894	-0.0747681	0.000305176	
6.10168	-0.0753784	0	
6.10229	-0.0750732	0.000762939	
6.10352	-0.0747681	0.000762939	
6.10291	-0.0750732	0.000457764	
6.10474	-0.0750732	0.000762939	
6.10687	-0.0750732	0.000457764	
6.10779	-0.0753784	0.000457764	
6.1084	-0.0750732	0.000457764	
6.10931	-0.0750732	0.000152588	
6.11176	-0.0753784	0.000305176	
6.11267	-0.0753784	0	
6.11298	-0.0769043	0.000152588	
6.11389	-0.0796509	0.000152588	
6.11664	-0.0799561	0.000305176	
6.11816	-0.0796509	0.000305176	
6.11816	-0.0802612	0.000457764	
6.11786	-0.0799561	0.000762939	
6.11877	-0.0793457	0.000152588	
6.12183	-0.0796509	0.000305176	
6.12244	-0.0799561	0.000457764	
6.12213	-0.0805664	0.000457764	
6.12366	-0.0793457	0	
6.12671	-0.0799561	0.000152588	
6.12732	-0.0805664	0.000457764	
6.12793	-0.0817871	0.000457764	
6.12732	-0.0848389	0.000610352	
6.12915	-0.0848389	0.000457764	
6.13159	-0.0848389	0.000152588	
6.13159	-0.0848389	0.000457764	
6.13281	-0.0842285	0.000915527	
6.13403	-0.0848389	0.000762939	
6.13678	-0.0854492	0.000457764	
6.138	-0.0845337	0.000610352	
6.13708	-0.0845337	0.000610352	
6.1377	-0.0848389	0.000610352	
6.13922	-0.0848389	0.000305176	
6.14166	-0.0845337	0.000305176	
6.14288	-0.085144	0.000610352	
6.14227	-0.0869751	0.000305176	
6.1441	-0.0888062	0.000457764	
6.14594	-0.0900269	0.000305176	
6.14655	-0.090332	0.000457764	
6.14746	-0.0900269	0.000305176	
6.14807	-0.0900269	0.000610352	
6.14838	-0.0900269	0.000305176	
6.15143	-0.0900269	0.000457764	
6.15234	-0.0897217	0.000762939	
6.15234	-0.0900269	0.000305176	
6.15234	-0.0900269	0.000610352	
6.15387	-0.0900269	0	
6.15631	-0.0900269	0	
6.15723	-0.0900269	0.000457764	
6.15723	-0.090332	0.000305176	
6.15845	-0.0918579	0.000305176	
6.16119	-0.093689	0.000152588	
6.16211	-0.0949097	0.000457764	
6.16211	-0.0942993	0.000610352	
6.16211	-0.0946045	0.000610352	
6.16302	-0.0942993	0.000152588	
6.16577	-0.093689	0	
6.1673	-0.0942993	0.000152588	
6.16699	-0.0946045	0.000457764	
6.16699	-0.0949097	-0.000152588	
6.16821	-0.0949097	0	
6.17035	-0.0952148	0.000152588	
6.17188	-0.0946045	0	
6.17188	-0.0949097	0.000457764	
6.17126	-0.0946045	0.000152588	
6.1731	-0.0964355	0.000762939	
6.17615	-0.0991821	0.000762939	
6.17676	-0.0994873	0.000305176	
6.17737	-0.0994873	0.000152588	
6.17798	-0.0997925	0.000457764	
6.18042	-0.0994873	0.000305176	
6.18195	-0.0994873	0.000610352	
6.18195	-0.0997925	0.000152588	
6.18225	-0.0997925	0.000305176	
6.18286	-0.100098	0.000305176	
6.1853	-0.0994873	0.000457764	
6.18683	-0.0994873	0.000152588	
6.18591	-0.100403	0.000152588	
6.18713	-0.0994873	0.000457764	
6.18774	-0.0997925	0.000457764	
6.19049	-0.0991821	0.000305176	
6.19141	-0.0997925	0.000305176	
6.19141	-0.102234	0.000457764	
6.19202	-0.104675	0.000457764	
6.19324	-0.104065	0.000457764	
6.19446	-0.10437	0.000305176	
6.1969	-0.10498	0.000152588	
6.1969	-0.10437	0	
6.19659	-0.10498	0.000457764	
6.19781	-0.10437	0.000610352	
6.19995	-0.104675	0.000762939	
6.20148	-0.10376	0.000457764	
6.20148	-0.10437	0.000305176	
6.20148	-0.10437	0.000610352	
6.2027	-0.10498	0.000457764	
6.20514	-0.10437	0.000305176	
6.20605	-0.10437	0.000457764	
6.20697	-0.104675	0.000152588	
6.20636	-0.104675	0.000610352	
6.20728	-0.10498	0.000305176	
6.21033	-0.107422	0.000305176	
6.21094	-0.108643	0.000610352	
6.21155	-0.109863	0.000152588	
6.21155	-0.109863	0.000610352	
6.21155	-0.109863	0.000457764	
6.21307	-0.109253	0.000610352	
6.21521	-0.109558	0.000610352	
6.21582	-0.109253	0.000305176	
6.21674	-0.109558	0.000305176	
6.21643	-0.109253	0.000457764	
6.21765	-0.109558	0.000610352	
6.2207	-0.109863	0.000610352	
6.2207	-0.109863	0	
6.22162	-0.109863	0.000457764	
6.22101	-0.109253	0.000152588	
6.22253	-0.108643	0.000457764	
6.22467	-0.109863	0.000152588	
6.22711	-0.110168	0.000152588	
6.2265	-0.109558	0.000305176	
6.2265	-0.109253	0.000915527	
6.22742	-0.109558	0.000457764	
6.23047	-0.111694	0.000457764	
6.23138	-0.114441	0.000305176	
6.23138	-0.113831	0.000152588	
6.23108	-0.114441	0.000305176	
6.23077	-0.114136	0.000152588	
6.23322	-0.113831	0.000305176	
6.23474	-0.115051	0.000305176	
6.23688	-0.114136	0.000610352	
6.23596	-0.114441	0.000152588	
6.23627	-0.114136	0.000305176	
6.23718	-0.114441	0.000305176	
6.24054	-0.114441	0.000610352	
6.24054	-0.114136	0.000610352	
6.24146	-0.113831	0.000610352	
6.24054	-0.114136	0.000762939	
6.24084	-0.113525	0.000457764	
6.24207	-0.114136	0.000457764	
6.24512	-0.114136	0.000305176	
6.24542	-0.114746	0.000152588	
6.24634	-0.114136	0.000152588	
6.24542	-0.114441	0.000305176	
6.24695	-0.114441	0.000305176	
6.24908	-0.114441	0.000305176	
6.25061	-0.114441	0.000457764	
6.25122	-0.113831	0.000762939	
6.25122	-0.116882	0.000610352	
6.25031	-0.119019	0.000457764	
6.25183	-0.118713	0.000152588	
6.25427	-0.119324	0.000610352	
6.2558	-0.119019	0.000305176	
6.2558	-0.119629	0.000457764	
6.2558	-0.119324	0	
6.2558	-0.119019	0.000457764	
6.25732	-0.119324	0.000152588	
6.25885	-0.119019	0.000457764	
6.26007	-0.119324	0	
6.26038	-0.119629	-0.000152588	
6.26129	-0.119019	0.000610352	
6.26251	-0.119019	0.000915527	
6.26434	-0.119629	0.000457764	
6.26556	-0.119019	0.000610352	
6.26587	-0.119934	0.000152588	
6.26526	-0.118713	0.000610352	
6.26587	-0.119019	0.000457764	
6.26709	-0.119019	0.000457764	
6.27045	-0.119629	0	
6.27075	-0.119324	0.000152588	
6.27014	-0.119019	0.000305176	
6.27136	-0.119324	0.000305176	
6.27075	-0.119324	0.000457764	
6.27167	-0.119019	0.000305176	
6.27502	-0.119324	0.000610352	
6.27563	-0.119019	0.00106812	
6.27625	-0.119324	0.000457764	
6.27625	-0.119019	0.000305176	
6.27594	-0.119324	0.000305176	
6.27716	-0.119629	0.000305176	
6.27899	-0.119324	0.000305176	
6.28082	-0.119629	0.000457764	
6.28021	-0.121155	0.000305176	
6.28082	-0.123901	0.000152588	
6.28021	-0.124207	0	
6.28174	-0.124207	0.000457764	
6.28448	-0.124207	0.000305176	
6.28571	-0.124207	0.000610352	
6.28571	-0.124512	0.000915527	
6.28601	-0.123291	0.000305176	
6.2851	-0.124817	0.000305176	
6.28662	-0.124512	0.000610352	
6.28937	-0.124207	0.000610352	
6.29059	-0.124512	0.000457764	
6.29089	-0.124512	0	
6.29059	-0.123901	0.000305176	
6.29028	-0.124207	0.000305176	
6.29181	-0.123596	0.000457764	
6.29425	-0.123901	0.000305176	
6.29486	-0.124207	0.000610352	
6.29578	-0.124512	0.000457764	
6.29517	-0.124207	0.000762939	
6.29608	-0.124207	0.000457764	
6.29517	-0.123901	0.000305176	
6.29669	-0.124207	0.000305176	
6.29944	-0.124207	0.000610352	
6.30005	-0.124207	0.000305176	
6.30005	-0.124207	0.000305176	
6.30035	-0.124817	-0.000152588	
6.30035	-0.124817	0.000152588	
6.30127	-0.124207	0.000305176	
6.30371	-0.124512	0.000305176	
6.30554	-0.124207	0.000457764	
6.30585	-0.123901	0.000152588	
6.30554	-0.123596	0.000305176	
6.30554	-0.123596	0.000610352	
6.30524	-0.124207	0.000457764	
6.30676	-0.124817	0.000152588	
6.3089	-0.125122	0.000457764	
6.31042	-0.123901	0.000305176	
6.31042	-0.123901	0.000305176	
6.31042	-0.124817	0.000305176	
6.30951	-0.124207	0.000305176	
6.31104	-0.124817	0.000305176	
6.31378	-0.124207	0.000152588	
6.3147	-0.124207	0.000457764	
6.315	-0.123596	0.000305176	
6.3147	-0.124207	0.000457764	
6.315	-0.124512	0.000915527	
6.315	-0.124207	0.000610352	
6.31622	-0.124512	0.000152588	
6.31866	-0.123901	0.000457764	
6.31958	-0.124512	0.000610352	
6.32019	-0.124817	0.000457764	
6.32019	-0.124512	-0.000152588	
6.31927	-0.124207	0.000152588	
6.3205	-0.124512	0.000305176	
6.3208	-0.123901	0.000457764	
6.32385	-0.124512	0	
6.32507	-0.124207	0.000152588	
6.32538	-0.124207	0.000457764	
6.32507	-0.123901	0.000457764	
6.32477	-0.124207	0.000762939	
6.32538	-0.123901	0.000305176	
6.32629	-0.124512	0.000152588	
6.32874	-0.124512	0.000305176	
6.32965	-0.124817	0.000457764	
6.32965	-0.124207	0.000457764	
6.32935	-0.124512	0	
6.32996	-0.123901	-0.000152588	
6.32965	-0.123901	0.000152588	
6.32996	-0.124817	0.000152588	
6.33392	-0.124512	0.000152588	
6.33423	-0.124512	0.000305176	
6.33484	-0.123901	0	
6.33453	-0.123901	0.000915527	
6.33423	-0.124207	0.000305176	
6.33484	-0.123291	0.000457764	
6.33575	-0.124207	0.000305176	
6.3382	-0.124207	0.000457764	
6.33942	-0.125122	0.000305176	
6.33911	-0.124207	-0.000152588	
6.33942	-0.124512	0.000305176	
6.33881	-0.124207	0.000610352	
6.33942	-0.124512	0.000152588	
6.34033	-0.124207	0.000457764	
6.34338	-0.124512	0.000152588	
6.3446	-0.123901	0.000457764	
6.3446	-0.123901	0.000915527	
6.3446	-0.124207	0.000457764	
6.3443	-0.123901	0.000457764	
6.3443	-0.123901	0.000762939	
6.3446	-0.124512	0.000305176	
6.34521	-0.124207	0.000457764	
6.34918	-0.124817	0	
6.34918	-0.12207	0.000305176	
6.34949	-0.119934	0.000305176	
6.34979	-0.119019	0.000610352	
6.34949	-0.118408	0	
6.34979	-0.119019	0.000305176	
6.34979	-0.119324	0.000457764	
6.3504	-0.119324	0.000915527	
6.35376	-0.119019	0.000305176	
6.35376	-0.119019	0.000152588	
6.35406	-0.119019	0.000152588	
6.35437	-0.119324	0.000610352	
6.35406	-0.119934	0.000610352	
6.35498	-0.119019	0.000305176	
6.35559	-0.118713	0	
6.35834	-0.119934	0.000457764	
6.35895	-0.119324	0.000305176	
6.35956	-0.118713	0.000152588	
6.35925	-0.119019	0.000457764	
6.35864	-0.119324	0.000305176	
6.35925	-0.119019	0.000762939	
6.35956	-0.119019	0.000762939	
6.36047	-0.119629	0.000610352	
6.36322	-0.119324	0.000457764	
6.36444	-0.119019	0.000457764	
6.36475	-0.119019	0.000152588	
6.36353	-0.119324	0.000457764	
6.36475	-0.119324	0.000152588	
6.36414	-0.119019	0.000305176	
6.36444	-0.119934	0.000152588	
6.36383	-0.118713	0	
6.36566	-0.119629	0.000152588	
6.36841	-0.119019	0.000305176	
6.36902	-0.119019	0.000610352	
6.36871	-0.118713	0.000762939	
6.36902	-0.119019	0.000457764	
6.36902	-0.118713	0.000457764	
6.36902	-0.118408	0.000457764	
6.36932	-0.119324	0.000610352	
6.37054	-0.119629	0.000610352	
6.37329	-0.119629	0.000152588	
6.3739	-0.119934	0.000457764	
6.3739	-0.119324	0.000305176	
6.37329	-0.119019	0.000457764	
6.37421	-0.116577	0.000152588	
6.37421	-0.114136	0.000152588	
6.37421	-0.114136	0.000457764	
6.37421	-0.114136	0.000610352	
6.37512	-0.114746	0.000305176	
6.37787	-0.114746	0.000457764	
6.37848	-0.114441	0.000457764	
6.37848	-0.114136	0.000457764	
6.37878	-0.115051	0.000305176	
6.37939	-0.114746	0.000457764	
6.37878	-0.114136	0.000305176	
6.37909	-0.114441	0.000305176	
6.37939	-0.115051	0.000457764	
6.38	-0.114441	0.000457764	
6.38275	-0.113831	0.000610352	
6.38397	-0.114746	0.000457764	
6.38367	-0.114136	0	
6.38367	-0.114136	0.000762939	
6.38428	-0.114746	0.000305176	
6.38458	-0.114136	0.000610352	
6.38397	-0.114136	0.000610352	
6.38367	-0.113525	0.000457764	
6.3855	-0.114746	0.000305176	
6.38794	-0.114441	0.000152588	
6.38947	-0.114441	0.000457764	
6.38916	-0.114746	0.000305176	
6.38885	-0.114441	0.000152588	
6.38916	-0.114136	0.000305176	
6.38885	-0.114746	0.000305176	
6.38916	-0.114441	0.000305176	
6.38885	-0.114136	0.000915527	
6.38855	-0.114746	0.000610352	
6.38885	-0.114136	0.000762939	
6.38885	-0.114746	0.000457764	
6.38916	-0.114136	0.000610352	
6.38885	-0.114136	0.000610352	
6.38916	-0.112305	-0.000152588	
6.39008	-0.110168	0.000152588	
6.39313	-0.109558	0.000305176	
6.39313	-0.110168	0.000457764	
6.39435	-0.109253	0.000305176	
6.39435	-0.108948	0.000457764	
6.39496	-0.109863	0.000152588	
6.39771	-0.108948	0.000457764	
6.39893	-0.110168	0.000457764	
6.39862	-0.108643	0.000152588	
6.39893	-0.109558	0.000305176	
6.39923	-0.109253	0.000457764	
6.39893	-0.109558	0.000610352	
6.39832	-0.109558	0.000305176	
6.39832	-0.108948	0.000305176	
6.39893	-0.109863	0.000305176	
6.40015	-0.109558	0.000305176	
6.40289	-0.109253	0.000152588	
6.4032	-0.109253	0.000457764	
6.4035	-0.109253	0.000457764	
6.40381	-0.109558	0.000305176	
6.40411	-0.109253	0.000762939	
6.4035	-0.109863	0.000457764	
6.4035	-0.109253	0.000457764	
6.40381	-0.108948	0.000610352	
6.40381	-0.109253	0.000152588	
6.4032	-0.109558	0	
6.40594	-0.107422	0.000305176	
6.40747	-0.10498	0.000305176	
6.40839	-0.105286	0.000610352	
6.40839	-0.10437	0.000152588	
6.4093	-0.10498	0.000457764	
6.40839	-0.10498	0.000457764	
6.40808	-0.10498	0.000915527	
6.40839	-0.104675	0.000457764	
6.40869	-0.104675	0.000915527	
6.4093	-0.104675	0.000610352	
6.40869	-0.10437	0.000762939	
6.40991	-0.104675	0.000457764	
6.41266	-0.10376	0.000762939	
6.41235	-0.104675	0.000152588	
6.41388	-0.104675	0.000152588	
6.41357	-0.10498	0.000610352	
6.41388	-0.10437	0	
6.41418	-0.104065	0.000305176	
6.41357	-0.10437	0.000305176	
6.41296	-0.104065	0.000457764	
6.41388	-0.10437	0.000610352	
6.41357	-0.10376	0.000457764	
6.41327	-0.104065	0.000457764	
6.4151	-0.10498	0.000305176	
6.41724	-0.102539	0.000762939	
6.41754	-0.100098	0.000610352	
6.41876	-0.0997925	0.000305176	
6.41846	-0.0994873	0.000152588	
6.41876	-0.0997925	0.000305176	
6.41876	-0.0997925	0.000152588	
6.41785	-0.100098	0.000305176	
6.41846	-0.0997925	0.000762939	
6.41907	-0.0997925	0.000457764	
6.41815	-0.0991821	0.000457764	
6.41876	-0.0997925	0.000915527	
6.41846	-0.100403	0.000457764	
6.41876	-0.0994873	0.000457764	
6.42181	-0.0994873	0.000610352	
6.42334	-0.0994873	0.000610352	
6.42395	-0.0994873	0.000457764	
6.42303	-0.0997925	-0.000152588	
6.42426	-0.0997925	0.000305176	
6.42334	-0.0994873	0.000152588	
6.42365	-0.0997925	0.000457764	
6.42334	-0.0994873	0	
6.42334	-0.0997925	0.000305176	
6.42334	-0.100098	0.000305176	
6.42395	-0.0970459	0.000762939	
6.42334	-0.09552	0.000610352	
6.42303	-0.0942993	0.000457764	
6.42487	-0.0952148	0.000457764	
6.42761	-0.0939941	0.000305176	
6.42822	-0.0949097	0.000457764	
6.42731	-0.0942993	0.000152588	
6.42853	-0.0946045	0.000610352	
6.42822	-0.0942993	0.000457764	
6.42822	-0.0949097	0.000457764	
6.42822	-0.0949097	0.000305176	
6.42822	-0.0949097	0.000457764	
6.42853	-0.0946045	0.000762939	
6.42822	-0.0946045	0.000915527	
6.42883	-0.0949097	0.000305176	
6.42822	-0.0949097	0.000305176	
6.42853	-0.0946045	0.000457764	
6.42853	-0.0949097	0.000457764	
6.42944	-0.0946045	0.000610352	
6.4328	-0.0949097	0.000152588	
6.43311	-0.0924683	0	
6.43341	-0.0909424	0.000305176	
6.43341	-0.0897217	0.000305176	
6.43341	-0.0897217	0.000152588	
6.4328	-0.090332	0.000457764	
6.43341	-0.0900269	0.000457764	
6.43372	-0.090332	0.000610352	
6.43341	-0.0897217	0.000762939	
6.43372	-0.0897217	0.000610352	
6.43311	-0.090332	0.000305176	
6.43311	-0.0900269	0.000305176	
6.4328	-0.0900269	0.000457764	
6.43311	-0.0894165	0.000305176	
6.4325	-0.0894165	0.000152588	
6.43463	-0.0897217	0.000305176	
6.43707	-0.0872803	0.000457764	
6.43799	-0.0857544	0.000152588	
6.43829	-0.0854492	0.000305176	
6.43829	-0.0848389	0	
6.43799	-0.0848389	0.000610352	
6.43768	-0.0845337	0.00106812	
6.43829	-0.0845337	0.000305176	
6.43829	-0.0842285	0.000610352	
6.4386	-0.085144	0.000457764	
6.43829	-0.0854492	0.000457764	
6.43799	-0.085144	0.000457764	
6.43799	-0.0854492	0.000152588	
6.4386	-0.0823975	0.000152588	
6.43799	-0.0805664	0.000152588	
6.43768	-0.0796509	0.000305176	
6.43829	-0.0802612	0.000152588	
6.43829	-0.0799561	0.000457764	
6.43829	-0.0796509	0.000610352	
6.43921	-0.0793457	0.000305176	
6.44226	-0.0796509	0.000305176	
6.44318	-0.0799561	0.000457764	
6.44348	-0.0769043	0.000152588	
6.44287	-0.0753784	0.000610352	
6.44348	-0.0750732	0.000305176	
6.44318	-0.0741577	0.000457764	
6.44318	-0.0750732	0.000305176	
6.44318	-0.0756836	0.000457764	
6.44348	-0.0747681	0.000305176	
6.44348	-0.072937	0.000152588	
6.44318	-0.0708008	0.000610352	
6.44318	-0.0698853	0.000305176	
6.44287	-0.0698853	0.000152588	
6.44318	-0.0704956	0.000610352	
6.44379	-0.0704956	0.000762939	
6.44318	-0.0674438	0.000610352	
6.44287	-0.0656128	0.000610352	
6.44287	-0.0650024	0.000305176	
6.44287	-0.0656128	0.000457764	
6.44287	-0.0653076	0	
6.44409	-0.0656128	0.000305176	
6.44775	-0.0634766	0.000305176	
6.44775	-0.0613403	0.000305176	
6.44775	-0.0601196	0.000762939	
6.44836	-0.0610352	0.000457764	
6.44806	-0.0579834	0.000457764	
6.44897	-0.0564575	0.000457764	
6.44806	-0.055542	0.000610352	
6.44836	-0.055542	0.000305176	
6.44836	-0.055542	0.000457764	
6.44806	-0.0531006	0.000305176	
6.44806	-0.0515747	0.000457764	
6.44775	-0.0506592	0	
6.44775	-0.0506592	0.000152588	
6.44775	-0.0485229	0.000152588	
6.44836	-0.0460815	0.000152588	
6.44775	-0.0457764	0.000152588	
6.44836	-0.043335	0.000305176	
6.44867	-0.0415039	0.000457764	
6.44806	-0.0405884	0.000457764	
6.44806	-0.0405884	0.000152588	
6.44836	-0.0387573	0.000457764	
6.44867	-0.0360107	0.000305176	
6.44775	-0.0357056	0.000457764	
6.44775	-0.0332642	0.000305176	
6.44836	-0.0308228	0.000305176	
6.44745	-0.0314331	0.000305176	
6.44745	-0.0289917	0.000305176	
6.44958	-0.0268555	0	
6.45233	-0.0256348	0.000152588	
6.45325	-0.0241089	0.000305176	
6.45294	-0.0219727	0.000457764	
6.45294	-0.0216675	0.000610352	
6.45233	-0.0192261	0.000915527	
6.45325	-0.0170898	0.000305176	
6.45203	-0.0137329	0.000152588	
6.45325	-0.0119019	0.000610352	
6.45203	-0.0109863	0.000457764	
6.45325	-0.00915527	0.000305176	
6.45264	-0.00671387	0.000152588	
6.45264	-0.00396729	0.000305176	
6.45264	-0.00244141	0.000152588	
6.45264	-0.00152588	-0.000152588	
6.45294	0.000610352	0.000457764	
6.45294	0.00244141	0.000305176	
6.45325	0.00549316	0.000915527	
6.45294	0.00854492	0.000762939	
6.45294	0.0106812	0.000762939	
6.45264	0.0128174	0.000457764	
6.45325	0.0134277	0.000305176	
6.45325	0.015564	0.000305176	
6.45233	0.017395	0.000305176	
6.45294	0.0204468	0	
6.45325	0.0222778	0.000152588	
6.45294	0.0247192	0.000152588	
6.45355	0.0271606	0.000457764	
6.45325	0.0296021	0.000152588	
6.45294	0.0320435	0.000305176	
6.45294	0.0360107	0.000457764	
6.45294	0.0366211	0.000305176	
6.45294	0.0396729	0.000305176	
6.45294	0.0421143	0.000610352	
6.45294	0.045166	0.000305176	
6.45264	0.0469971	0.000457764	
6.45294	0.0500488	0.000610352	
6.45355	0.0512695	0	
6.45325	0.0552368	0.000305176	
6.45325	0.0561523	0.000305176	
6.45355	0.0598145	0.000305176	
6.45294	0.0643921	0.000305176	
6.45294	0.065918	0.000610352	
6.45355	0.0695801	0.000305176	
6.45325	0.0717163	0.000457764	
6.45264	0.0741577	0.000610352	
6.45294	0.0765991	0.000457764	
6.45416	0.0790405	0.000305176	
6.45691	0.0799561	0.000457764	
6.45782	0.0836182	0.000305176	
6.45721	0.0872803	0.000152588	
6.45813	0.090332	0.000305176	
6.45813	0.0933838	0.000457764	
6.45813	0.0946045	0.000152588	
6.45813	0.0982666	0.000152588	
6.45813	0.101929	0.000610352	
6.45844	0.10498	0.000305176	
6.45874	0.108032	0.000610352	
6.45782	0.110474	0.000762939	
6.45844	0.11322	0.000457764	
6.45782	0.117493	0.000457764	
6.45813	0.120544	0.000457764	
6.45752	0.122681	0.000305176	
6.45782	0.124512	0.000152588	
6.45721	0.127563	0.000305176	
6.45813	0.132446	0.000152588	
6.45905	0.134277	0.000305176	
6.45752	0.137634	0.000152588	
6.45721	0.142517	0.000457764	
6.45752	0.144653	0.000305176	
6.45813	0.147095	0.000305176	
6.45844	0.149841	0.000457764	
6.45813	0.152893	0.000457764	
6.45844	0.157166	0.000457764	
6.45782	0.158691	0.000152588	
6.45782	0.162354	0.000610352	
6.45782	0.166626	0.000610352	
6.45813	0.168762	0	
6.45813	0.171509	0.000305176	
6.45844	0.173645	0.000457764	
6.45782	0.176697	0.000305176	
6.45874	0.180969	0.000305176	
6.45752	0.184326	0.000610352	
6.45782	0.186462	0.000305176	
6.45782	0.19104	0.000305176	
6.45752	0.193481	0.000610352	
6.45752	0.194092	0.000457764	
6.45844	0.194397	0.000610352	
6.45752	0.196533	0.000762939	
6.45813	0.198364	0.000305176	
6.45813	0.201416	0.000152588	
6.45844	0.204468	0.000152588	
6.45782	0.208435	0.000305176	
6.45813	0.211182	0.000152588	
6.45721	0.215759	0.000305176	
6.45752	0.217896	0.000305176	
6.45844	0.221558	0.000305176	
6.45844	0.22583	0.000457764	
6.45813	0.227661	0.000610352	
6.45813	0.231018	0.000610352	
6.45782	0.233154	0.000457764	
6.45813	0.235596	0.000457764	
6.45844	0.239868	0.000457764	
6.45782	0.241699	0.000305176	
6.45782	0.245056	0.000152588	
6.45782	0.248108	0.000152588	
6.45752	0.250244	0.000152588	
6.45782	0.254517	0.000152588	
6.45782	0.256653	0.000457764	
6.45844	0.260315	0.000305176	
6.4563	0.262146	0.000610352	
6.45416	0.264893	0.000457764	
6.45294	0.26886	0.000762939	
6.45264	0.271912	0.000305176	
6.45325	0.274658	0.000457764	
6.45264	0.2771	0.000457764	
6.45264	0.279541	0.000305176	
6.45264	0.283813	0	
6.45294	0.286865	-0.000152588	
6.45325	0.289001	0.000305176	
6.45264	0.291748	0	
6.45264	0.293579	0.000457764	
6.45355	0.296021	0.000457764	
6.45294	0.299377	0.000305176	
6.45325	0.303955	0.000305176	
6.45325	0.306091	0.000762939	
6.45294	0.309448	0.000610352	
6.45264	0.311584	0.000610352	
6.45325	0.313721	0.000610352	
6.45294	0.315247	0.000762939	
6.45264	0.318604	0.000305176	
6.45294	0.320129	0.000152588	
6.45325	0.323792	0.000457764	
6.45294	0.325623	0.000457764	
6.45264	0.328369	0.000457764	
6.45294	0.333252	0.000610352	
6.45294	0.334778	0.000305176	
6.45355	0.33844	0.000610352	
6.45325	0.340576	0.000915527	
6.45264	0.343323	0.000915527	
6.45264	0.345764	0.000305176	
6.45325	0.3479	0.000305176	
6.45264	0.350342	0.000610352	
6.45294	0.353088	0.000457764	
6.45325	0.355225	0	
6.45294	0.355835	0.000152588	
6.45294	0.357971	0.000457764	
6.45355	0.359802	0.000457764	
6.45355	0.362549	0.000305176	
6.45233	0.365295	0.000305176	
6.45294	0.367432	0.000610352	
6.45325	0.369263	0.000610352	
6.45294	0.372925	0.000457764	
6.45264	0.375061	0.000457764	
6.45264	0.377502	0.000305176	
6.45203	0.379639	0.000762939	
6.44928	0.379639	0.000305176	
6.44806	0.38269	0	
6.44745	0.384216	0.000152588	
6.44745	0.387573	0.000457764	
6.44806	0.389404	0.000610352	
6.44775	0.390015	0.000305176	
6.44836	0.392761	0.000152588	
6.44806	0.393982	0.000152588	
6.44775	0.396729	0.000305176	
6.44836	0.398865	0.000610352	
6.44775	0.39978	0.000305176	
6.44745	0.402527	0.000762939	
6.44836	0.404053	0.000457764	
6.44775	0.404968	0.000305176	
6.44867	0.407104	0.000305176	
6.44836	0.409241	0.000457764	
6.44806	0.410156	0.000457764	
6.44806	0.411987	0.000610352	
6.44775	0.413818	0.000305176	
6.44806	0.414429	0.000152588	
6.44806	0.416565	0.000610352	
6.44806	0.419006	0.000610352	
6.44806	0.419312	0.000915527	
6.44775	0.421753	0.000762939	
6.44745	0.423584	0.000457764	
6.44653	0.424194	0.000610352	
6.44379	0.426636	0.000305176	
6.44287	0.428772	0.000305176	
6.44287	0.429382	0	
6.44318	0.429688	0.000152588	
6.44318	0.431824	0.000457764	
6.44348	0.433044	0.000305176	
6.44287	0.43396	0.000457764	
6.44287	0.43396	0.000457764	
6.44348	0.436401	0.000457764	
6.44287	0.438232	0.000457764	
6.44287	0.438843	0.000305176	
6.44348	0.438843	0.000610352	
6.44318	0.441284	0.000457764	
6.44318	0.44342	0.000457764	
6.44257	0.443726	0.000457764	
6.44287	0.444336	0.000152588	
6.44348	0.443726	0.000152588	
6.44287	0.445557	0.000305176	
6.44318	0.448303	0.000305176	
6.44287	0.449524	0	
6.4389	0.448608	0	
6.43829	0.448608	0.000305176	
6.43829	0.448608	0.000457764	
6.4386	0.45166	0.000457764	
6.43829	0.453491	0.000457764	
6.4386	0.454102	0.000457764	
6.43829	0.454102	0.000457764	
6.4386	0.454102	0.000457764	
6.43799	0.454102	0.000152588	
6.4389	0.454407	0.000305176	
6.43829	0.455322	0.000305176	
6.43829	0.458374	0.000305176	
6.4386	0.458374	0.000305176	
6.43799	0.458679	0.000457764	
6.43829	0.458984	0.000457764	
6.4389	0.45929	0.000762939	
6.43677	0.458984	0.000762939	
6.43463	0.4599	0.000610352	
6.43433	0.458374	0.000152588	
6.43372	0.461426	0.000305176	
6.43372	0.462952	0.000152588	
6.43311	0.463867	0.000305176	
6.43372	0.463867	0.000152588	
6.4328	0.463867	0.000152588	
6.43372	0.463867	0.000152588	
6.43311	0.463257	0.000457764	
6.43341	0.464172	0.000457764	
6.43341	0.463867	0.000152588	
6.43311	0.464172	0.000457764	
6.43372	0.464172	0.000457764	
6.43158	0.463562	0.000762939	
6.42944	0.463257	0.000457764	
6.42822	0.463867	0.000457764	
6.42853	0.463867	0.000610352	
6.42853	0.463867	0.000457764	
6.42853	0.463562	0.000457764	
6.42883	0.464172	0.000152588	
6.42822	0.463562	0.000305176	
6.42822	0.463562	0.000457764	
6.42853	0.463562	0.000457764	
6.42883	0.463257	0.000457764	
6.42822	0.463562	0.000152588	
6.42822	0.463562	0.000610352	
6.42731	0.463867	0.000610352	
6.42487	0.463867	0.000610352	
6.42395	0.463257	0.000305176	
6.42334	0.463257	0.000457764	
6.42303	0.463562	0.000457764	
6.42273	0.463562	0	
6.42365	0.463867	0.000305176	
6.42334	0.464172	0.000610352	
6.42365	0.463562	0.000305176	
6.42395	0.463562	0.000152588	
6.42365	0.464172	0.000305176	
6.42395	0.463867	0.000152588	
6.42181	0.463257	0.000762939	
6.41907	0.463562	0.000457764	
6.41876	0.464478	0.000457764	
6.41846	0.463867	0.000457764	
6.41846	0.461426	0.000610352	
6.41876	0.459595	0.000457764	
6.41876	0.458984	0.000152588	
6.41876	0.458374	0.000152588	
6.41815	0.458679	0.000152588	
6.41876	0.458984	0.000152588	
6.41785	0.458679	0.000457764	
6.41846	0.45929	0.000305176	
6.41876	0.457764	0.000305176	
6.41846	0.458984	0.000457764	
6.41846	0.458069	0.000305176	
6.41785	0.456543	0.000457764	
6.41846	0.454407	0.000305176	
6.41846	0.453491	0.000305176	
6.41846	0.453186	0.000457764	
6.41846	0.454102	0.000457764	
6.41907	0.453796	0	
6.41907	0.454102	0.000457764	
6.41846	0.453491	0.000610352	
6.41815	0.451355	0.000610352	
6.41571	0.449829	0.000152588	
6.41113	0.448608	0.000305176	
6.40808	0.449219	0.000457764	
6.40503	0.448608	0.000457764	
6.40381	0.448608	0.000762939	
6.40381	0.446472	0.000152588	
6.40381	0.444336	0.000305176	
6.40289	0.44342	0.000762939	
6.40381	0.444336	0.000457764	
6.40442	0.44342	-0.000152588	
6.4035	0.443726	0.000152588	
6.40228	0.441589	0.000457764	
6.39984	0.437622	0.000152588	
6.39893	0.43457	0.000305176	
6.39893	0.43396	0.000152588	
6.39832	0.43396	0.000457764	
6.39923	0.434265	0.000915527	
6.39893	0.434265	0.000762939	
6.39862	0.432129	0.000457764	
6.39771	0.429688	0.000152588	
6.39496	0.429077	0.000610352	
6.39343	0.428772	0.000457764	
6.39404	0.428772	0.000305176	
6.39343	0.426636	0.000152588	
6.39404	0.4245	0	
6.39435	0.424805	0.000457764	
6.39313	0.424194	0	
6.39282	0.423889	0.000305176	
6.39008	0.421448	0.000762939	
6.38855	0.420227	0.000457764	
6.38916	0.419617	0.000152588	
6.38855	0.419006	0.000457764	
6.38916	0.41687	0.000457764	
6.38947	0.415039	0.000457764	
6.38916	0.414734	0.000305176	
6.38763	0.415344	0.000152588	
6.3855	0.414429	0.000152588	
6.38397	0.411987	0	
6.38428	0.410767	0.000457764	
6.38367	0.410156	0.000152588	
6.38397	0.408936	0.000610352	
6.38367	0.409241	0.000305176	
6.38397	0.409241	0.000610352	
6.38275	0.407715	0.000610352	
6.38	0.405273	0.000305176	
6.37939	0.404053	0.000457764	
6.37878	0.404663	0.000762939	
6.37939	0.402832	0.000762939	
6.37878	0.400391	0.000152588	
6.37878	0.400391	0.000457764	
6.37787	0.39978	0.000305176	
6.37573	0.39978	0.000457764	
6.37451	0.397339	0.000457764	
6.3736	0.395508	0.000152588	
6.3739	0.394287	0.000610352	
6.37421	0.394287	0.000305176	
6.3739	0.393066	0.000610352	
6.37238	0.39093	0.000762939	
6.36993	0.39032	0.000610352	
6.36902	0.390625	0.000457764	
6.36932	0.388184	0.000610352	
6.36841	0.385437	0.000457764	
6.36902	0.384827	0.000457764	
6.3681	0.384216	0.000305176	
6.36566	0.383301	0.000457764	
6.36444	0.381165	0.000457764	
6.36383	0.380859	0.000305176	
6.36414	0.380249	0.000457764	
6.36414	0.377502	0.000305176	
6.36444	0.375366	0.000457764	
6.36292	0.375366	0.000457764	
6.35986	0.375366	0.000457764	
6.35956	0.372925	0.000457764	
6.35925	0.370789	0.000457764	
6.35895	0.369873	0.000305176	
6.35895	0.371399	0.000457764	
6.35834	0.368347	-0.000152588	
6.35498	0.366211	-0.000152588	
6.35468	0.365295	0.000610352	
6.35406	0.365295	0.000305176	
6.35437	0.362854	0.000610352	
6.35437	0.361023	0.000457764	
6.35406	0.360413	0.000457764	
6.35284	0.360107	0.000762939	
6.35071	0.358582	0.000457764	
6.34949	0.355835	0.000762939	
6.34979	0.35553	0.000762939	
6.34857	0.35553	0.000457764	
6.34949	0.353394	0.000305176	
6.34857	0.351563	0	
6.34552	0.350037	0.000305176	
6.34491	0.348206	0.000457764	
6.3443	0.346069	0.000305176	
6.3446	0.345459	0.000457764	
6.3446	0.346375	0.000305176	
6.34338	0.343628	0.000610352	
6.34033	0.341187	0.000610352	
6.33911	0.340881	0.000457764	
6.3385	0.340881	0.000457764	
6.34003	0.338745	0.000305176	
6.3382	0.336914	0.000762939	
6.33575	0.336304	0.000610352	
6.33484	0.335693	0.000305176	
6.33484	0.333862	0.000152588	
6.33484	0.332336	0.000457764	
6.33484	0.330505	0.000152588	
6.33331	0.32959	0.000305176	
6.33148	0.327454	0.000305176	
6.32996	0.325623	0.000457764	
6.32935	0.326233	0.000915527	
6.32904	0.323792	0.000610352	
6.32874	0.322571	0.000305176	
6.32568	0.32074	0.000610352	
6.32568	0.321045	0.000457764	
6.32477	0.318909	0.000610352	
6.32538	0.316772	0.000457764	
6.32507	0.315857	0	
6.32385	0.316162	0.000305176	
6.3205	0.314331	0.000305176	
6.31989	0.31189	0	
6.31989	0.311584	0.000610352	
6.31989	0.310059	0.000305176	
6.31897	0.307617	0.000457764	
6.31622	0.307617	0.000610352	
6.3147	0.307007	0.000457764	
6.31531	0.304565	0.000457764	
6.31531	0.301819	0.000610352	
6.31317	0.302124	0.000610352	
6.31165	0.299683	0.000305176	
6.31012	0.296936	0.000152588	
6.30981	0.297241	0.000305176	
6.31042	0.296631	0.000457764	
6.31012	0.294189	0.000305176	
6.31073	0.292053	0.000305176	
6.31073	0.291748	0.000457764	
6.31012	0.291748	0.000457764	
6.31073	0.289612	0.000610352	
6.30981	0.288086	0.000610352	
6.30981	0.28656	0.000305176	
6.31073	0.285339	0.000762939	
6.30707	0.282593	0.000762939	
6.3028	0.282288	0.000305176	
6.29944	0.281982	0.000457764	
6.29669	0.282288	0.000457764	
6.29547	0.281677	0.000305176	
6.29547	0.281982	0.000457764	
6.29517	0.279541	0.000152588	
6.29456	0.2771	0.000305176	
6.2915	0.276794	0.000457764	
6.29059	0.275269	0.000457764	
6.29059	0.273132	0.000762939	
6.29059	0.272217	0.000457764	
6.28906	0.272217	0.000305176	
6.28693	0.270691	0.000457764	
6.2854	0.267944	0.000610352	
6.28571	0.267639	0.000152588	
6.28571	0.264893	0	
6.28418	0.263062	0.000152588	
6.28174	0.262451	0.000152588	
6.28021	0.262146	0	
6.28082	0.26062	0.000457764	
6.28021	0.257874	0.000305176	
6.28052	0.257568	0.000762939	
6.28082	0.255127	0.000610352	
6.28052	0.253601	0.000457764	
6.28021	0.252686	0.000152588	
6.2793	0.253601	0.000457764	
6.27747	0.250244	0.000457764	
6.27625	0.248108	0.000305176	
6.27533	0.247498	0.000457764	
6.27472	0.245972	0.000610352	
6.27167	0.24353	0.000152588	
6.27106	0.24292	0.000457764	
6.27045	0.243225	0	
6.27045	0.240479	0.000457764	
6.26923	0.238342	0.000457764	
6.2674	0.238647	0.000915527	
6.26617	0.236206	0.000610352	
6.26587	0.233459	0.000305176	
6.26404	0.232544	0.000457764	
6.2619	0.233154	0.000457764	
6.26099	0.230713	0.000457764	
6.26129	0.229492	0.000305176	
6.26038	0.227966	0.000305176	
6.26007	0.225525	0.000610352	
6.25702	0.224304	0.000457764	
6.25549	0.223083	0.000610352	
6.25549	0.223389	0.000457764	
6.25488	0.221558	0.000457764	
6.25183	0.218506	0.000610352	
6.25092	0.218201	0.000610352	
6.25	0.216064	0.000152588	
6.24939	0.213928	0.000305176	
6.24664	0.213928	0.000305176	
6.24603	0.213318	0.000762939	
6.24573	0.211182	0.000457764	
6.24634	0.210266	0.000457764	
6.24481	0.208435	0	
6.24268	0.205994	0.000152588	
6.24054	0.203857	0	
6.24146	0.203857	0.000305176	
6.24023	0.204163	0.000305176	
6.23718	0.201721	0.000457764	
6.23657	0.19928	0.000152588	
6.23596	0.198975	0.000610352	
6.23474	0.195923	0.000305176	
6.23322	0.194397	0.000305176	
6.23108	0.193481	0.000457764	
6.23108	0.193481	0.000610352	
6.23047	0.19165	0	
6.22742	0.189819	0.000305176	
6.22681	0.188904	0.000152588	
6.22589	0.187378	0.000305176	
6.22467	0.184631	0.000305176	
6.22284	0.184021	0	
6.22101	0.184021	0.000305176	
6.22162	0.181274	0.000915527	
6.21979	0.179749	0.000610352	
6.21674	0.179138	0.000457764	
6.21674	0.178528	0.000305176	
6.21674	0.177307	0.000457764	
6.21521	0.174255	0.000610352	
6.21246	0.174255	0.000457764	
6.21124	0.172424	0.000305176	
6.21216	0.169983	0.000152588	
6.21094	0.169067	0.000305176	
6.20758	0.169373	0.000305176	
6.20697	0.166321	0.000305176	
6.20636	0.1651	0.000457764	
6.20483	0.16449	0.000305176	
6.203	0.161743	0.000610352	
6.20117	0.160217	0.000152588	
6.20148	0.159607	0.000457764	
6.19965	0.159607	0	
6.19781	0.157471	0.000305176	
6.19659	0.155029	0.000152588	
6.19659	0.154419	0.000152588	
6.19537	0.154419	0.000152588	
6.19263	0.151978	0.000305176	
6.19171	0.150757	0.000305176	
6.1911	0.149841	0.000152588	
6.19049	0.149841	0.000457764	
6.18774	0.147095	0.000152588	
6.18744	0.145874	0.000305176	
6.18622	0.144653	0.000305176	
6.1853	0.142517	0.000305176	
6.18286	0.141296	0.000457764	
6.18103	0.140381	0.000305176	
6.18225	0.140076	0.000457764	
6.18073	0.138245	0.000152588	
6.17828	0.134888	0.000305176	
6.17767	0.135498	0.000305176	
6.17493	0.134888	0.000305176	
6.1734	0.132446	-0.000152588	
6.17218	0.130615	0.000457764	
6.1731	0.1297	0.000610352	
6.17035	0.13031	0.000610352	
6.16852	0.127869	0.000457764	
6.1673	0.125732	0.000457764	
6.1673	0.124817	0.000610352	
6.16577	0.125122	0.000762939	
6.16333	0.122681	0.000305176	
6.16211	0.121155	0.000152588	
6.16089	0.119934	0.000457764	
6.15814	0.119629	0.000610352	
6.15753	0.118713	0.000305176	
6.15723	0.115967	0.000457764	
6.15265	0.115051	0.000152588	
6.14594	0.115967	0.000457764	
6.14258	0.112915	0.000915527	
6.14258	0.110474	0.000457764	
6.14166	0.110168	0.000152588	
6.13892	0.110474	0.000610352	
6.13831	0.108948	0.000457764	
6.13647	0.106201	0.000305176	
6.13373	0.105896	0.000305176	
6.13251	0.104675	0	
6.13373	0.102844	0.000152588	
6.13159	0.100708	0.000610352	
6.12915	0.100708	0.000152588	
6.12793	0.100403	0.000457764	
6.1264	0.100403	0.000457764	
6.12335	0.0985718	0.000457764	
6.12305	0.0958252	0.000610352	
6.12274	0.0964355	0.000305176	
6.12183	0.0958252	0.000305176	
6.11908	0.0933838	0.000152588	
6.11755	0.0915527	0.000457764	
6.11725	0.0909424	0.000152588	
6.11359	0.0906372	0	
6.11237	0.0897217	0.000457764	
6.11145	0.0860596	0.000152588	
6.10901	0.0860596	0.000305176	
6.10809	0.0860596	0.000457764	
6.10779	0.0857544	0.000305176	
6.10657	0.0842285	0.000610352	
6.10352	0.0817871	0.000610352	
6.1026	0.0808716	0.000915527	
6.10291	0.0814819	0.000152588	
6.10291	0.0787354	0.000610352	
6.10291	0.0775146	0.000457764	
6.10138	0.0772095	0.000457764	
6.09985	0.0765991	0	
6.09802	0.0772095	0.000152588	
6.09802	0.0750732	0.000152588	
6.09711	0.0720215	0.000457764	
6.09436	0.0726318	0.000305176	
6.09283	0.0717163	0.000457764	
6.09161	0.0698853	0.000610352	
6.08917	0.0686646	0.000457764	
6.08826	0.0674438	0.000762939	
6.08704	0.0671387	0.000152588	
6.08459	0.0671387	0.000305176	
6.08307	0.0646973	0.000457764	
6.08154	0.0628662	0.000610352	
6.08032	0.0619507	0.000305176	
6.07849	0.0616455	0	
6.07849	0.0613403	0.000305176	
6.07697	0.0598145	0.000305176	
6.07483	0.0576782	0.000152588	
6.07422	0.057373	0.000305176	
6.07239	0.0567627	0	
6.06934	0.057373	0.000457764	
6.06812	0.0549316	0.000305176	
6.0672	0.0537109	0.000457764	
6.06506	0.0518799	0.000152588	
6.06384	0.0518799	0.000305176	
6.06232	0.0527954	0.000305176	
6.05988	0.0500488	0.000457764	
6.05896	0.0482178	0	
6.05774	0.0476074	0.000305176	
6.05499	0.0473022	0.000305176	
6.05316	0.0473022	0.000305176	
6.05286	0.0476074	0	
6.05011	0.0454712	0.000305176	
6.04919	0.0424194	0.000610352	
6.04706	0.0430298	0.000915527	
6.04401	0.043335	0.000610352	
6.04309	0.0430298	0.000305176	
6.04187	0.0402832	0.000457764	
6.03973	0.0384521	0.000610352	
6.03912	0.0378418	0.000457764	
6.03851	0.0372314	0.000457764	
6.0376	0.0375366	0	
6.03485	0.0372314	0.000152588	
6.03394	0.03479	0	
6.0318	0.0326538	0.000457764	
6.02936	0.0323486	0.000457764	
6.02936	0.0326538	0.000457764	
6.02753	0.0326538	0.000610352	
6.02509	0.0299072	0.000762939	
6.02417	0.027771	0.000305176	
6.02203	0.0274658	0.000305176	
6.02051	0.027771	0.000610352	
6.01898	0.027771	0.000610352	
6.01776	0.0271606	0.000305176	
6.01532	0.0253296	0.000305176	
6.01471	0.0228882	0	
6.01257	0.0228882	0.000305176	
6.00983	0.0231934	0.000152588	
6.00769	0.0228882	0.000305176	
6.00494	0.0228882	0.000457764	
6.00372	0.020752	0.000305176	
6.00342	0.0186157	0.000457764	
6.00128	0.0180054	0.000457764	
5.99976	0.0180054	0.000305176	
5.99854	0.0180054	0.000762939	
5.99609	0.0177002	0.000152588	
5.99518	0.015564	0.000305176	
5.99304	0.0137329	0.000152588	
5.9906	0.0131226	0.000610352	
5.9903	0.0128174	0.000305176	
5.98877	0.0128174	0.000152588	
5.98572	0.0131226	0.000457764	
5.98419	0.0134277	0.000305176	
5.98328	0.0106812	0.000457764	
5.98083	0.00854492	0.000457764	
5.97961	0.00823975	0.000610352	
5.97839	0.00732422	0.000457764	
5.97595	0.00793457	0.000305176	
5.97504	0.00762939	0.000457764	
5.97351	0.00854492	0.000610352	
5.97076	0.00518799	0.000457764	
5.96863	0.00274658	0.000305176	
5.96649	0.00213623	0.000457764	
5.96466	0.00366211	0.000305176	
5.96344	0.00366211	0.000610352	
5.961	0.00366211	0.000305176	
5.96008	0.00335693	0.000457764	
5.95856	0.0012207	0.000610352	
5.95551	-0.000915527	0.000457764	
5.9549	-0.00213623	0.000610352	
5.95459	-0.0012207	0.000305176	
5.95123	-0.0012207	0.000305176	
5.95032	-0.00152588	0.000152588	
5.94879	-0.00183105	0.000152588	
5.94574	-0.00305176	0	
5.94391	-0.00610352	0.000152588	
5.94116	-0.00610352	0.000457764	
5.94025	-0.00640869	0.000457764	
5.93903	-0.00640869	0.000305176	
5.93597	-0.00610352	0.000457764	
5.93536	-0.00610352	0.000610352	
5.93384	-0.00854492	0.000610352	
5.9314	-0.0106812	0.000610352	
5.93079	-0.0112915	0.000610352	
5.92896	-0.0112915	0.000305176	
5.92621	-0.0112915	0.000457764	
5.92377	-0.0119019	0.000305176	
5.92133	-0.0112915	-0.000152588	
5.92041	-0.0112915	0.000457764	
5.9198	-0.0137329	0.000152588	
5.91644	-0.015564	0.000457764	
5.91583	-0.0164795	0.000152588	
5.91431	-0.0167847	0.000457764	
5.91125	-0.0161743	0.000457764	
5.90912	-0.0158691	0.000915527	
5.90668	-0.0152588	0.000762939	
5.90576	-0.0161743	0.000457764	
5.90424	-0.0189209	0.000457764	
5.90179	-0.0201416	0	
5.90088	-0.0201416	0.000457764	
5.90027	-0.020752	0.000305176	
5.89905	-0.0216675	0.000457764	
5.8963	-0.0210571	0.000457764	
5.89417	-0.0216675	0.000457764	
5.89203	-0.0210571	0.000457764	
5.8905	-0.0213623	0.000305176	
5.88928	-0.0213623	0.000610352	
5.88776	-0.0234985	0.000762939	
5.88562	-0.0259399	0.000305176	
5.88409	-0.0253296	0.000610352	
5.88135	-0.0259399	0.000610352	
5.87921	-0.0259399	0.000457764	
5.87677	-0.0256348	0.000457764	
5.87616	-0.0259399	0.000610352	
5.87402	-0.0259399	0.000152588	
5.87158	-0.0280762	0.000305176	
5.87097	-0.0308228	0.000305176	
5.87006	-0.0308228	0.000305176	
5.867	-0.0308228	0.000305176	
5.86456	-0.0311279	0.000152588	
5.86243	-0.0302124	0.000305176	
5.86151	-0.0299072	0.000610352	
5.86029	-0.0305176	0.000457764	
5.85724	-0.032959	0.000457764	
5.85449	-0.0341797	0.000305176	
5.85205	-0.0360107	0.000305176	
5.85175	-0.0357056	0.000457764	
5.84991	-0.0357056	0.000152588	
5.84717	-0.0350952	0.000305176	
5.84473	-0.0360107	0.000457764	
5.8432	-0.0363159	0.000610352	
5.84167	-0.038147	0.000305176	
5.84015	-0.0408936	0.000457764	
5.8374	-0.0411987	0.000457764	
5.83679	-0.0411987	0.000457764	
5.83527	-0.0405884	0.000457764	
5.83313	-0.0411987	0.000457764	
5.83069	-0.0411987	0.000762939	
5.82764	-0.0408936	0.000152588	
5.82672	-0.0402832	0.000457764	
5.82428	-0.0424194	0.000152588	
5.82306	-0.0448608	0.000457764	
5.82092	-0.0454712	0.000457764	
5.81818	-0.0454712	0.000305176	
5.81818	-0.0454712	0.000457764	
5.81512	-0.0457764	0.000305176	
5.81299	-0.0454712	0.000457764	
5.81146	-0.0457764	0.000762939	
5.8078	-0.0476074	0.000305176	
5.8075	-0.0497437	0.000762939	
5.80597	-0.0506592	0.000152588	
5.80292	-0.0512695	0.000762939	
5.80139	-0.0506592	0.000152588	
5.79865	-0.050354	0.000305176	
5.79712	-0.0500488	0.000152588	
5.79651	-0.0497437	0	
5.79285	-0.0524902	0.000305176	
5.79071	-0.0552368	0.000457764	
5.78857	-0.0552368	0.000152588	
5.78613	-0.0549316	0.000152588	
5.78308	-0.0558472	0.000457764	
5.78247	-0.0543213	0.000915527	
5.78125	-0.0558472	0.000305176	
5.7785	-0.0552368	0	
5.77637	-0.0576782	0.000457764	
5.77332	-0.0604248	0.000305176	
5.7724	-0.0601196	0.000305176	
5.77148	-0.0604248	0.000152588	
5.76813	-0.06073	0	
5.76599	-0.0601196	0.000457764	
5.76324	-0.0604248	0.000152588	
5.76263	-0.0598145	0.000305176	
5.76172	-0.062561	0.000305176	
5.75867	-0.0653076	0.000305176	
5.75623	-0.0656128	0.000610352	
5.75409	-0.0653076	0.000457764	
5.75073	-0.0650024	0.000457764	
5.7486	-0.0653076	0.000457764	
5.74768	-0.0656128	0.000152588	
5.74646	-0.0650024	0.000610352	
5.74341	-0.0668335	0.000305176	
5.74249	-0.0698853	0.000152588	
5.73944	-0.0698853	0.000152588	
5.73792	-0.0701904	0.000457764	
5.73608	-0.0701904	0.000152588	
5.73364	-0.0704956	0.000457764	
5.73151	-0.0698853	0.000457764	
5.72876	-0.0698853	0.000457764	
5.72754	-0.072937	0.000305176	
5.72449	-0.0744629	0.000305176	
5.72296	-0.0744629	0.000610352	
5.72144	-0.0750732	0.000305176	
5.71899	-0.0753784	0	
5.71716	-0.0753784	0.000305176	
5.71442	-0.0750732	0	
5.71198	-0.0753784	0.000152588	
5.70923	-0.0775146	0.000305176	
5.70801	-0.0796509	0.000305176	
5.70679	-0.0796509	0.000610352	
5.70435	-0.0802612	0.000610352	
5.7019	-0.0802612	0.000457764	
5.69977	-0.0799561	0.000457764	
5.69672	-0.0802612	0.000305176	
5.69519	-0.0802612	0.000457764	
5.69397	-0.0830078	0.000610352	
5.69183	-0.0845337	0.000457764	
5.69	-0.0857544	0.000152588	
5.68726	-0.085144	0.000152588	
5.68512	-0.085144	0.000305176	
5.68237	-0.085144	0.000457764	
5.67963	-0.085144	0.000457764	
5.67902	-0.0872803	0.000610352	
5.67688	-0.0894165	0.000152588	
5.67535	-0.0894165	0.000457764	
5.67261	-0.0894165	0.000610352	
5.67047	-0.0897217	0.000762939	
5.66711	-0.0897217	0.000457764	
5.66498	-0.0897217	0.000762939	
5.66467	-0.0921631	0.000457764	
5.66223	-0.0946045	0.000610352	
5.6604	-0.0949097	0.000305176	
5.65826	-0.0942993	0.000457764	
5.65521	-0.0952148	0.000457764	
5.65338	-0.0946045	0.000457764	
5.65033	-0.0946045	0.000305176	
5.64972	-0.0946045	0.000610352	
5.64789	-0.0961304	0.000305176	
5.64514	-0.0994873	0.000762939	
5.64301	-0.0991821	0.000152588	
5.64117	-0.0991821	0.000610352	
5.63751	-0.0994873	0.000305176	
5.63568	-0.0997925	0.000762939	
5.63293	-0.0991821	0.000305176	
5.63019	-0.101929	0.000152588	
5.62988	-0.104065	-0.000152588	
5.62805	-0.10498	0.000152588	
5.62653	-0.10437	0.000610352	
5.62347	-0.104675	0.000152588	
5.62073	-0.10437	0.000457764	
5.62012	-0.104675	0.000457764	
5.61981	-0.107422	0.000305176	
5.61951	-0.108337	0.000457764	
5.61737	-0.109558	0.000457764	
5.61584	-0.109253	0.000152588	
5.61462	-0.109253	0.000610352	
5.6134	-0.110168	0.000762939	
5.61035	-0.109863	0.000305176	
5.60883	-0.112	0.000457764	
5.60608	-0.113831	0.000305176	
5.60394	-0.114746	0.000610352	
5.6012	-0.114441	0.000152588	
5.59845	-0.114441	0.000457764	
5.5957	-0.114746	0.000305176	
5.5954	-0.114136	0.000457764	
5.59326	-0.114441	0.000915527	
5.59113	-0.116882	0.000457764	
5.58899	-0.118713	0.000610352	
5.58594	-0.119629	0.000457764	
5.5835	-0.120544	0.000457764	
5.58075	-0.119629	0.000610352	
5.57892	-0.119019	0.000305176	
5.57648	-0.119324	0.000305176	
5.57556	-0.12207	0.000457764	
5.57343	-0.123596	0.000610352	
5.57129	-0.124817	0.000610352	
5.56915	-0.124207	0.000457764	
5.5658	-0.124512	0.000457764	
5.56458	-0.124207	0.000610352	
5.56122	-0.124207	0.000305176	
5.55939	-0.126343	0.000457764	
5.55664	-0.129089	0.000457764	
5.55603	-0.1297	0.000457764	
5.55359	-0.129089	0.000457764	
5.55206	-0.129089	0.000305176	
5.55023	-0.129089	-0.000152588	
5.54688	-0.129089	0.000152588	
5.54474	-0.131226	0	
5.54169	-0.133057	0.000305176	
5.53955	-0.133972	0.000305176	
5.53711	-0.133972	0.000457764	
5.53436	-0.133972	0.000457764	
5.53192	-0.134277	0.000457764	
5.53131	-0.133972	0.000610352	
5.52917	-0.136414	0.000305176	
5.52673	-0.138245	0.000305176	
5.5249	-0.138855	0.000610352	
5.52246	-0.13855	0.000610352	
5.51941	-0.13855	0.000305176	
5.51697	-0.13855	0.000305176	
5.51514	-0.13916	0.000457764	
5.51239	-0.140991	0.000762939	
5.51117	-0.143433	0.000152588	
5.51025	-0.143738	0.000305176	
5.5069	-0.143433	0.000457764	
5.50476	-0.144043	0.000915527	
5.50293	-0.144348	0.000305176	
5.50049	-0.144043	0.000610352	
5.49744	-0.145874	0.000762939	
5.495	-0.148315	0.000305176	
5.49286	-0.148621	0.000305176	
5.49011	-0.148926	0.000305176	
5.48737	-0.148621	0.000305176	
5.48645	-0.148926	0.000457764	
5.48492	-0.149231	0.000305176	
5.48218	-0.151062	0.000457764	
5.48035	-0.153198	0.000457764	
5.4776	-0.153503	0.000457764	
5.47577	-0.153503	0.000457764	
5.47272	-0.154114	0.000457764	
5.47058	-0.153809	0.000457764	
5.46753	-0.153198	0.000457764	
5.4657	-0.15564	0.000305176	
5.46265	-0.158081	0.000610352	
5.46204	-0.158386	0.000152588	
5.46112	-0.158386	0.000152588	
5.45776	-0.158081	0.000305176	
5.45563	-0.158997	0.000305176	
5.45288	-0.158386	0.000457764	
5.45135	-0.158081	0	
5.448	-0.160828	0.000305176	
5.44647	-0.162964	0.000305176	
5.44312	-0.163574	0.000305176	
5.44067	-0.162964	0.000457764	
5.43793	-0.163574	0.000457764	
5.43762	-0.163574	0.000610352	
5.43579	-0.163269	0.000610352	
5.43304	-0.16571	0.000457764	
5.43091	-0.167542	0.000152588	
5.42755	-0.167847	0.000152588	
5.42633	-0.167847	0.000457764	
5.42389	-0.167847	0.000457764	
5.42145	-0.168152	0.000305176	
5.4184	-0.167847	0.000457764	
5.41595	-0.170288	0.000457764	
5.41321	-0.172424	0.000915527	
5.41107	-0.173035	0.000457764	
5.40863	-0.17334	0.000305176	
5.40771	-0.173035	0.000457764	
5.40588	-0.172729	0.000305176	
5.40405	-0.17334	0.000457764	
5.40161	-0.173035	0.000457764	
5.39856	-0.175171	0.000305176	
5.39642	-0.177612	0.000457764	
5.39307	-0.178223	0.000457764	
5.39154	-0.177917	0.000305176	
5.3894	-0.178528	0.000457764	
5.38666	-0.178223	0.000457764	
5.38391	-0.178833	0.000762939	
5.38208	-0.180664	0.000305176	
5.37872	-0.182495	0.000457764	
5.37781	-0.182495	0.000305176	
5.37659	-0.1828	0.000152588	
5.37384	-0.1828	0.000610352	
5.3717	-0.182495	0.000152588	
5.36926	-0.183105	0.000152588	
5.36743	-0.1828	0.000152588	
5.36469	-0.184937	0.000305176	
5.36163	-0.186768	0.000305176	
5.35919	-0.187988	0.000305176	
5.35736	-0.187988	0.000305176	
5.35431	-0.187683	0.000457764	
5.35278	-0.187683	0.000457764	
5.34943	-0.187683	0.000610352	
5.34821	-0.190125	0.000305176	
5.34668	-0.191956	0.000305176	
5.34546	-0.193176	0.000152588	
5.34241	-0.193176	0.000457764	
5.33936	-0.192261	0.000152588	
5.33691	-0.192566	0.000305176	
5.33478	-0.192261	0.000762939	
5.33264	-0.193176	0.000610352	
5.3302	-0.195007	0.000152588	
5.32745	-0.197144	0.000610352	
5.32501	-0.197449	0.000610352	
5.32257	-0.197449	0.000610352	
5.31921	-0.197449	0.000762939	
5.3186	-0.197449	0.000457764	
5.31677	-0.197449	0.000610352	
5.31525	-0.197144	0.000610352	
5.3125	-0.19928	0.000152588	
5.31006	-0.202332	0.000305176	
5.30792	-0.202942	0.000152588	
5.30518	-0.202942	0.000305176	
5.30273	-0.202637	0.000610352	
5.30029	-0.202942	0.000305176	
5.29785	-0.202637	0.000762939	
5.2948	-0.202637	0.000610352	
5.29236	-0.202637	0.000610352	
5.28931	-0.204468	0.000305176	
5.28839	-0.206604	0.000305176	
5.28534	-0.20752	0.000457764	
5.28442	-0.207214	0.000305176	
5.2829	-0.207825	0.000457764	
5.28046	-0.207214	0.000305176	
5.27863	-0.20752	0.000152588	
5.27588	-0.207214	0.000152588	
5.27374	-0.209351	0.000762939	
5.27008	-0.211792	0.000305176	
5.26764	-0.212097	0.000305176	
5.2652	-0.212402	0.000152588	
5.26367	-0.212097	0.000762939	
5.26031	-0.213013	0.000457764	
5.25787	-0.212097	0.000305176	
5.25574	-0.212708	0.000305176	
5.2533	-0.212402	0.000457764	
5.25055	-0.214233	0.000305176	
5.24933	-0.217285	0.000152588	
5.2475	-0.218201	0	
5.24597	-0.21759	0.000305176	
5.24323	-0.21759	0.000152588	
5.24048	-0.21759	0.000305176	
5.23865	-0.217285	0.000305176	
5.2356	-0.217285	0.000610352	
5.23346	-0.217285	0.000305176	
5.23102	-0.219421	0.000762939	
5.22888	-0.220642	0.000610352	
5.22522	-0.222168	0.000610352	
5.224	-0.222168	0.000457764	
5.22095	-0.222473	0.000457764	
5.21851	-0.221863	0.000762939	
5.21667	-0.221863	0.000152588	
5.21301	-0.221863	0	
5.21088	-0.221863	0.000610352	
5.21057	-0.224609	0.000457764	
5.20905	-0.226746	0.000305176	
5.2063	-0.226746	0.000305176	
5.20447	-0.227356	0.000457764	
5.20142	-0.227356	0.000610352	
5.19928	-0.226746	0.000457764	
5.19714	-0.227966	0.000457764	
5.19379	-0.226746	0.000457764	
5.19165	-0.227051	0.000305176	
5.18921	-0.226746	0.000762939	
5.18707	-0.229797	0	
5.18463	-0.231018	-0.000152588	
5.18188	-0.231628	0.000457764	
5.17944	-0.232239	0.000305176	
5.1767	-0.232239	0.000152588	
5.17426	-0.232544	0.000152588	
5.17212	-0.232239	0.000305176	
5.1709	-0.232544	0.000610352	
5.16998	-0.231934	0.000610352	
5.16693	-0.232239	0.000457764	
5.16541	-0.233765	0.000457764	
5.16174	-0.236206	0.000305176	
5.1593	-0.237122	0.000305176	
5.15686	-0.236816	0.000305176	
5.15503	-0.236511	0.000152588	
5.15289	-0.236511	0.000610352	
5.14984	-0.236511	0.000762939	
5.14709	-0.236511	0.000305176	
5.14526	-0.236206	0.000152588	
5.14191	-0.236511	0.000152588	
5.14008	-0.239258	0.000762939	
5.13733	-0.240784	0.000610352	
5.13519	-0.241394	0.000762939	
5.13275	-0.241394	0.000610352	
5.13123	-0.241089	0.000610352	
5.13062	-0.242004	0.000762939	
5.12726	-0.241699	0.000457764	
5.12512	-0.241394	0	
5.12268	-0.241699	0	
5.12054	-0.241394	0.000610352	
5.11749	-0.241394	0.000457764	
5.11566	-0.243835	0.000152588	
5.11322	-0.245972	0.000305176	
5.11047	-0.246887	0	
5.10742	-0.246582	0.000915527	
5.1062	-0.246887	0.000457764	
5.10254	-0.246277	0.000457764	
5.10071	-0.246582	0.000762939	
5.09827	-0.246582	0.000610352	
5.09583	-0.246277	0.000610352	
5.09308	-0.246887	0.000152588	
5.09094	-0.246887	0.000457764	
5.0882	-0.245972	0.000457764	
5.08545	-0.248718	0.000305176	
5.08331	-0.250854	0.000457764	
5.08209	-0.25177	0.000305176	
5.08087	-0.25116	0.000305176	
5.07904	-0.25116	0.000762939	
5.07629	-0.251465	0.000610352	
5.07416	-0.25116	0.000610352	
5.07141	-0.251465	0.000305176	
5.06836	-0.251465	0.000457764	
5.06744	-0.25177	0.000305176	
5.06348	-0.25116	0.000305176	
5.06165	-0.25177	0.000152588	
5.0589	-0.253906	0.000152588	
5.05707	-0.256042	0.000305176	
5.05402	-0.256042	0.000305176	
5.05157	-0.256348	0.000152588	
5.04974	-0.256348	0.000457764	
5.04639	-0.255737	0.000762939	
5.04456	-0.256042	0.0012207	
5.04181	-0.256348	0.000305176	
5.03967	-0.256042	0.000305176	
5.03754	-0.255737	0.000610352	
5.03357	-0.256348	0.000152588	
5.03174	-0.256348	0.000152588	
5.0293	-0.256653	0.000305176	
5.02869	-0.256348	0	
5.02747	-0.258484	0.000152588	
5.02441	-0.26062	0.000152588	
5.02228	-0.260925	0.000305176	
5.01953	-0.261536	0.000457764	
5.0174	-0.260925	0.000610352	
5.01495	-0.260925	0.000915527	
5.0119	-0.263062	0.000305176	
5.00977	-0.265808	0.000305176	
5.00702	-0.266418	0.000610352	
5.00488	-0.265808	0.000152588	
5.00153	-0.266113	0.000610352	
5	-0.266418	0.000305176	
4.99756	-0.266113	0.000152588	
4.99481	-0.266418	0.000457764	
4.99237	-0.266113	0.000152588	
4.99023	-0.266113	0	
4.98749	-0.266113	0.000305176	
4.98444	-0.266418	0.000305176	
4.98291	-0.266113	0.000457764	
4.98016	-0.265808	0.000457764	
4.97803	-0.265808	0.000457764	
4.97467	-0.266113	0.000457764	
4.97253	-0.265808	0.000457764	
4.97009	-0.266113	0.000457764	
4.96857	-0.266113	0.000305176	
4.96582	-0.266724	0.000305176	
4.96307	-0.26825	0.000152588	
4.96124	-0.270691	0.000457764	
4.95789	-0.271606	0.000152588	
4.95544	-0.270691	0.000457764	
4.953	-0.270691	0	
4.95056	-0.271301	0.000610352	
4.94965	-0.270996	0.000610352	
4.94781	-0.270691	0.000762939	
4.94568	-0.271912	0.000457764	
4.94324	-0.271912	0.000762939	
4.94049	-0.270691	0.000305176	
4.93805	-0.271606	0.000305176	
4.93591	-0.271606	0.000152588	
4.93347	-0.271301	0.000305176	
4.93103	-0.271301	0.000457764	
4.92889	-0.270996	0.000610352	
4.92554	-0.270691	0.000305176	
4.9234	-0.270691	0.000152588	
4.92096	-0.271606	0.000305176	
4.91882	-0.270691	0.000457764	
4.91608	-0.273132	0.000610352	
4.91394	-0.275574	0.000305176	
4.91058	-0.276184	0.000305176	
4.90875	-0.275879	0.000610352	
4.90631	-0.276184	0.000610352	
4.90417	-0.276794	0.000610352	
4.90082	-0.275879	0.000305176	
4.89899	-0.276184	0.000152588	
4.89624	-0.276489	0.000305176	
4.8941	-0.276794	0.000457764	
4.89136	-0.276184	0.000457764	
4.88892	-0.276184	0.000457764	
4.88617	-0.275879	0.000762939	
4.88373	-0.276184	0.000762939	
4.88098	-0.276184	0.000152588	
4.87976	-0.275879	0.000305176	
4.8764	-0.276184	0.000457764	
4.87427	-0.275269	0.000457764	
4.87122	-0.276489	0.000305176	
4.86877	-0.276184	0	
4.86664	-0.276184	0.000305176	
4.8642	-0.275879	0.000457764	
4.86206	-0.275879	0.000457764	
4.85992	-0.275574	0.000152588	
4.85657	-0.276184	0.000610352	
4.85504	-0.275574	0.000762939	
4.85138	-0.27832	0.00106812	
4.84985	-0.280457	0.000457764	
4.84711	-0.281067	0.000457764	
4.84497	-0.281067	0.000762939	
4.84192	-0.281677	0.000305176	
4.84009	-0.280762	0.000762939	
4.83734	-0.281372	0.000305176	
4.83521	-0.281067	0.000152588	
4.83185	-0.280457	0.000762939	
4.82941	-0.281372	0.000457764	
